r_channel;ir_channel
2101;2463
2141;2433
2089;2482
2116;2455
2109;2437
2113;2472
2099;2458
2108;2480
2101;2445
2077;2494
2116;2466
2106;2450
2113;2471
2106;2461
2078;2483
2130;2441
2090;2484
2091;2457
2112;2480
2101;2463
2121;2456
2088;2478
2088;2461
2104;2466
2112;2448
2107;2429
2074;2482
2101;2457
2110;2441
2113;2466
2103;2473
2080;2483
2114;2445
2100;2448
2087;2474
2108;2465
2105;2466
2133;2433
2093;2463
2087;2466
2106;2470
2117;2455
2100;2434
2090;2486
2098;2468
2105;2444
2114;2464
2111;2463
2070;2472
2107;2437
2097;2460
2097;2455
2097;2464
2096;2471
2111;2444
2097;2468
2080;2469
2103;2470
2121;2455
2088;2427
2083;2487
2105;2458
2097;2444
2123;2484
2107;2468
2070;2493
2122;2454
2096;2451
2092;2451
2109;2475
2108;2453
2137;2447
2100;2474
2080;2472
2122;2487
2135;2455
2123;2445
2095;2483
2130;2469
2108;2460
2125;2471
2118;2483
2107;2496
2152;2481
2135;2479
2127;2480
2138;2494
2138;2497
2162;2472
2128;2502
2118;2502
2147;2501
2169;2498
2156;2479
2128;2530
2167;2504
2156;2501
2178;2507
2162;2520
2133;2537
2175;2494
2151;2493
2153;2520
2168;2539
2159;2540
2183;2523
2183;2527
2201;2534
2187;2514
2174;2548
2208;2547
2210;2562
2222;2571
2223;2546
2200;2575
2190;2576
2220;2579
2217;2581
2241;2562
2223;2581
2213;2575
2213;2582
2202;2582
2253;2560
2213;2569
2219;2572
2194;2578
2182;2585
2210;2538
2195;2521
2202;2558
2201;2545
2172;2575
2193;2541
2200;2535
2201;2544
2191;2532
2182;2561
2184;2536
2179;2542
2179;2544
2206;2505
2165;2538
2154;2520
2187;2530
2167;2521
2196;2501
2169;2527
2175;2523
2164;2526
2153;2534
2179;2510
2167;2505
2171;2505
2174;2519
2140;2547
2168;2512
2159;2504
2167;2515
2155;2494
2132;2512
2147;2513
2173;2509
2179;2509
2185;2498
2141;2515
2149;2517
2165;2520
2163;2522
2187;2490
2149;2519
2155;2525
2158;2521
2128;2536
2190;2492
2160;2482
2166;2511
2154;2517
2145;2537
2177;2511
2149;2498
2170;2513
2174;2504
2133;2533
2170;2513
2158;2529
2166;2517
2168;2493
2138;2520
2140;2504
2161;2517
2181;2510
2196;2489
2155;2525
2126;2509
2167;2535
2136;2519
2181;2491
2156;2524
2156;2507
2163;2523
2133;2530
2155;2504
2154;2484
2171;2512
2171;2502
2153;2519
2174;2500
2156;2498
2172;2500
2161;2493
2127;2534
2162;2508
2161;2523
2167;2529
2186;2493
2148;2526
2142;2510
2154;2523
2169;2512
2176;2482
2152;2514
2146;2502
2162;2521
2133;2520
2179;2501
2155;2492
2162;2500
2171;2514
2134;2535
2154;2503
2167;2489
2170;2513
2158;2483
2149;2538
2159;2504
2155;2520
2168;2508
2157;2479
2144;2524
2144;2497
2154;2512
2164;2506
2163;2479
2130;2508
2123;2500
2139;2505
2135;2512
2170;2472
2147;2487
2158;2500
2143;2527
2122;2510
2176;2484
2153;2473
2148;2497
2146;2495
2115;2525
2151;2493
2143;2492
2160;2502
2141;2471
2126;2498
2146;2495
2144;2513
2154;2505
2173;2481
2119;2504
2135;2493
2147;2511
2143;2496
2171;2477
2139;2498
2138;2491
2148;2499
2111;2496
2163;2473
2142;2485
2159;2497
2137;2501
2133;2515
2147;2498
2146;2474
2150;2488
2143;2490
2125;2525
2141;2487
2138;2502
2144;2491
2153;2472
2126;2508
2131;2500
2156;2483
2155;2505
2166;2477
2124;2507
2123;2491
2125;2516
2141;2492
2170;2474
2136;2505
2142;2504
2148;2507
2111;2507
2154;2482
2139;2479
2146;2499
2135;2507
2121;2524
2149;2487
2143;2485
2152;2505
2137;2470
2121;2524
2151;2500
2144;2499
2156;2502
2172;2476
2133;2516
2106;2473
2152;2515
2147;2492
2164;2462
2130;2511
2121;2484
2143;2512
2116;2514
2164;2474
2137;2497
2154;2494
2142;2491
2130;2537
2157;2489
2147;2475
2149;2500
2143;2498
2123;2515
2141;2495
2143;2493
2148;2498
2161;2490
2138;2523
2137;2500
2144;2496
2156;2508
2171;2470
2147;2494
2141;2488
2145;2499
2111;2501
2170;2478
2136;2499
2145;2509
2129;2520
2129;2521
2148;2491
2147;2460
2151;2499
2139;2490
2128;2526
2137;2484
2141;2484
2162;2504
2150;2460
2138;2526
2137;2494
2143;2505
2151;2497
2145;2477
2137;2500
2124;2502
2144;2502
2138;2514
2176;2492
2152;2509
2132;2504
2159;2506
2125;2526
2179;2491
2157;2499
2171;2508
2152;2525
2138;2537
2195;2512
2173;2521
2174;2534
2181;2532
2161;2564
2218;2552
2212;2560
2226;2571
2228;2548
2227;2594
2228;2598
2275;2639
2295;2631
2329;2632
2343;2702
2382;2760
2477;2844
2559;2913
2660;2966
2720;3091
2847;3184
3010;3362
3211;3573
3554;3825
3895;4190
4330;4613
4852;5120
5471;5757
6284;6491
7237;7386
8356;8455
9520;9535
10708;10778
12045;12030
13429;13369
14995;14897
16975;16721
19365;19012
22529;22052
26438;25726
30975;30142
36315;35342
41827;40857
47390;46417
53445;52542
60406;59607
66727;66252
72002;71937
75170;75486
76177;76727
76334;76873
78107;78369
82670;82881
89695;90205
99285;100881
107024;111372
110125;117095
110756;119317
111023;119880
111326;119830
111667;119933
112172;120556
112764;121672
113233;122801
113382;123742
113119;124454
111534;124977
106734;123851
102021;122191
105630;127292
109485;132889
110113;134242
110576;135223
110982;136110
111448;137197
111825;138326
112401;139620
112939;141036
113519;142449
113989;143730
114443;144815
114746;145727
115076;146484
115298;147059
115515;147570
115615;147688
115801;148048
115896;148339
116027;148601
116099;148844
116238;149012
116260;149211
116352;149400
116411;149558
116498;149715
116509;149840
116581;149923
116623;149970
116666;150081
116694;150131
116772;150197
116737;150272
116813;150390
116849;150470
116901;150554
116905;150669
116925;150720
116984;150787
117038;150859
117055;150941
117117;150981
117126;151041
117150;151158
117180;151218
117221;151303
117246;151392
117254;151436
117327;151488
117350;151571
117366;151609
117431;151628
117430;151677
117438;151729
117480;151752
117485;151790
117486;151885
117506;151892
117567;151939
117580;151987
117622;152033
117679;152037
117667;152079
117718;152165
117724;152201
117737;152251
117733;152300
117752;152320
117791;152326
117792;152355
117826;152385
117856;152370
117867;152396
117890;152482
117900;152487
117909;152523
117879;152569
117889;152559
117946;152583
117941;152606
117949;152627
118007;152614
117980;152634
118008;152664
117999;152641
117988;152628
117950;152629
117957;152580
117984;152564
117984;152555
117997;152516
118025;152498
118019;152500
118033;152552
118040;152546
118027;152554
118028;152602
118023;152618
118074;152638
118071;152656
118113;152670
118152;152653
118133;152673
118159;152724
118176;152728
118174;152762
118141;152782
118173;152813
118213;152835
118208;152865
118257;152895
118280;152890
118285;152899
118292;152961
118301;152950
118300;152983
118321;152989
118304;153021
118364;153033
118347;153061
118383;153072
118417;153043
118402;153078
118413;153131
118433;153126
118442;153172
118418;153213
118444;153216
118489;153228
118490;153266
118493;153267
118509;153270
118528;153278
118531;153323
118568;153330
118552;153362
118556;153396
118588;153442
118600;153446
118600;153494
118642;153492
118648;153453
118649;153491
118693;153561
118705;153551
118685;153594
118659;153604
118686;153616
118707;153622
118684;153669
118729;153640
118722;153607
118747;153655
118767;153690
118772;153676
118754;153697
118749;153716
118761;153728
118760;153725
118772;153766
118759;153736
118799;153712
118774;153749
118790;153725
118791;153677
118788;153658
118767;153650
118786;153615
118755;153623
118737;153599
118748;153573
118768;153537
118777;153584
118796;153585
118791;153555
118794;153579
118806;153617
118828;153623
118824;153643
118802;153660
118821;153684
118856;153627
118848;153699
118860;153702
118896;153683
118881;153682
118902;153768
118902;153744
118916;153774
118893;153807
118889;153802
118945;153800
118921;153801
118948;153791
118963;153793
118941;153766
118960;153830
118957;153812
118967;153845
118950;153876
118955;153878
118988;153881
118981;153928
119011;153901
119021;153903
119010;153899
119024;153940
119051;153924
119012;153965
119005;153975
119046;153995
119042;153987
119037;153989
119050;153995
119081;153980
119048;153976
119076;154028
119084;154007
119078;154029
119058;154028
119067;154067
119080;154059
119080;154084
119090;154078
119102;154065
119110;154096
119141;154107
119134;154081
119133;154103
119101;154126
119139;154145
119136;154142
119133;154187
119120;154150
119145;154129
119140;154118
119143;154101
119141;154037
119129;154055
119122;154032
119121;154027
119099;153989
119090;154008
119103;153986
119131;153966
119110;153981
119144;154000
119189;153955
119134;153967
119141;154000
119174;154033
119141;154040
119134;154054
119131;154066
119188;154089
119190;154078
119207;154124
119234;154081
119221;154118
119225;154156
119228;154151
119217;154145
119208;154201
119208;154166
119272;154197
119228;154163
119237;154203
119290;154153
119255;154176
119259;154188
119279;154219
119263;154202
119273;154256
119238;154219
119299;154253
119284;154250
119286;154278
119319;154221
119314;154252
119334;154269
119338;154295
119321;154312
119315;154364
119295;154308
119348;154358
119330;154347
119363;154362
119382;154315
119372;154326
119392;154350
119393;154374
119363;154390
119360;154428
119355;154388
119400;154429
119364;154417
119415;154431
119407;154369
119419;154415
119404;154411
119442;154443
119415;154416
119402;154448
119401;154353
119398;154393
119355;154325
119396;154329
119387;154241
119378;154286
119384;154243
119405;154256
119361;154235
119353;154290
119390;154246
119394;154306
119367;154284
119400;154305
119397;154239
119419;154319
119420;154297
119439;154300
119416;154300
119420;154352
119430;154332
119465;154392
119422;154385
119461;154403
119451;154332
119483;154422
119470;154375
119498;154397
119454;154343
119480;154437
119481;154377
119488;154445
119459;154419
119499;154444
119512;154384
119514;154462
119520;154438
119548;154466
119509;154428
119534;154518
119540;154470
119556;154519
119497;154513
119537;154534
119544;154485
119582;154548
119552;154503
119599;154527
119559;154470
119586;154572
119555;154517
119586;154564
119544;154579
119578;154598
119587;154536
119596;154631
119584;154584
119639;154608
119580;154564
119600;154627
119622;154598
119619;154652
119573;154601
119585;154620
119577;154524
119601;154567
119585;154494
119596;154468
119550;154436
119567;154447
119557;154385
119563;154448
119523;154408
119531;154410
119554;154392
119570;154400
119565;154394
119615;154384
119565;154379
119607;154453
119589;154434
119582;154454
119563;154452
119584;154450
119601;154447
119609;154486
119606;154477
119657;154462
119620;154469
119644;154516
119630;154516
119657;154502
119603;154536
119635;154541
119626;154491
119653;154533
119632;154513
119671;154505
119633;154490
119671;154546
119645;154545
119683;154531
119633;154597
119645;154575
119682;154574
119681;154587
119685;154611
119738;154573
119694;154586
119719;154630
119710;154623
119715;154643
119680;154672
119708;154658
119714;154679
119703;154682
119715;154675
119749;154653
119707;154630
119759;154694
119765;154700
119756;154722
119727;154746
119721;154725
119768;154744
119765;154746
119786;154758
119777;154726
119768;154719
119774;154722
119780;154693
119728;154684
119707;154660
119725;154611
119710;154587
119684;154568
119705;154529
119714;154494
119701;154453
119706;154500
119717;154485
119708;154495
119667;154529
119692;154532
119717;154529
119704;154517
119719;154517
119725;154490
119730;154485
119729;154511
119737;154512
119737;154532
119701;154573
119738;154573
119741;154570
119734;154605
119758;154590
119765;154565
119766;154592
119784;154604
119774;154576
119774;154598
119736;154629
119767;154622
119769;154624
119747;154645
119770;154638
119782;154583
119795;154610
119778;154639
119826;154616
119792;154652
119778;154674
119815;154683
119793;154700
119799;154720
119808;154722
119821;154688
119812;154721
119842;154734
119846;154702
119830;154740
119792;154740
119848;154755
119846;154774
119832;154783
119851;154775
119847;154751
119843;154773
119861;154789
119891;154777
119873;154803
119841;154806
119859;154813
119878;154837
119872;154855
119865;154864
119893;154835
119878;154858
119901;154862
119928;154827
119877;154833
119837;154814
119865;154778
119867;154736
119824;154722
119815;154646
119815;154596
119831;154608
119821;154602
119831;154564
119823;154589
119806;154586
119835;154593
119823;154603
119817;154644
119808;154578
119829;154557
119826;154583
119862;154592
119839;154574
119837;154585
119820;154624
119852;154635
119851;154646
119853;154674
119842;154668
119872;154648
119874;154684
119885;154689
119915;154660
119882;154663
119837;154689
119878;154707
119882;154718
119861;154725
119877;154705
119921;154690
119898;154726
119916;154738
119925;154729
119907;154715
119898;154759
119909;154762
119910;154787
119886;154791
119920;154809
119938;154778
119920;154769
119945;154837
119934;154819
119941;154865
119915;154861
119946;154849
119984;154838
119952;154854
119940;154896
119938;154876
119973;154894
119960;154902
119972;154902
119973;154887
119960;154915
119941;154948
119940;154951
119973;154902
119990;154946
120011;154962
120010;154945
120007;154973
119976;155019
119986;155007
120019;154955
120007;154979
120029;155029
120033;155021
120020;155040
119986;155014
120000;154998
120021;154928
119990;154865
119945;154885
119955;154834
119947;154805
119926;154805
119935;154756
119970;154723
119936;154745
119913;154740
119909;154735
119939;154747
119935;154744
119956;154743
119934;154742
119937;154753
119903;154765
119899;154728
119942;154683
119940;154710
119951;154737
119938;154762
119943;154785
119944;154806
119937;154788
119983;154780
119939;154772
119948;154825
119939;154774
119941;154819
119935;154815
119966;154810
119962;154773
119981;154803
119927;154813
119928;154838
119967;154829
119972;154823
119959;154835
119986;154818
119976;154835
119952;154891
119942;154853
119989;154846
119974;154844
119990;154875
119970;154876
120003;154908
119966;154922
120000;154898
120005;154885
120012;154863
119991;154919
120005;154937
119982;154942
119992;154952
119989;154929
120030;154909
120004;154922
119985;154957
120010;154955
120014;154965
119998;154945
120047;154982
120048;154932
120017;154984
119993;155000
119994;155005
120027;154991
120025;155018
120040;155003
120039;155025
120024;155036
120017;155070
119997;155021
120043;155038
120028;155040
120055;155081
120026;155049
120040;155093
120009;155094
120071;155083
120061;154996
120032;154988
120016;155000
120016;154982
119973;154918
119967;154924
119965;154841
119996;154823
119958;154764
119950;154821
119952;154769
119958;154800
119934;154760
119971;154774
119971;154719
119984;154780
119914;154755
119939;154775
119940;154719
119937;154750
119939;154718
119985;154753
119936;154713
119942;154806
119923;154764
119980;154770
119963;154752
119952;154829
119957;154786
119973;154851
119934;154810
119969;154829
119989;154766
119965;154777
119941;154787
119973;154824
119959;154792
119958;154822
119970;154798
119997;154791
119961;154773
119960;154857
119933;154811
120001;154865
119950;154806
119981;154871
119996;154823
119987;154874
119943;154849
119963;154881
119971;154821
119993;154881
119984;154831
119993;154903
119985;154880
119975;154936
119962;154885
119992;154863
119983;154843
120003;154938
119987;154905
120001;154927
119962;154912
120015;154924
120005;154874
119997;154892
119987;154910
119997;154970
119989;154929
119999;154971
119978;154932
120033;154942
119989;154916
119989;154998
119968;154957
120012;154968
119989;154956
120031;154994
120003;154954
120034;155022
119974;154990
120002;155033
120016;154960
120021;155012
120015;154997
120030;155022
120007;154984
120000;155053
119992;154958
119996;154938
119948;154858
119969;154880
119946;154796
119941;154801
119897;154747
119934;154720
119938;154669
119924;154676
119861;154681
119895;154679
119898;154684
119912;154655
119901;154666
119928;154623
119886;154634
119880;154664
119856;154633
119908;154601
119884;154629
119912;154622
119887;154640
119905;154627
119865;154658
119906;154660
119887;154642
119927;154641
119885;154664
119935;154692
119903;154668
119898;154661
119893;154657
119921;154619
119905;154633
119891;154660
119900;154666
119896;154666
119864;154651
119905;154635
119910;154629
119928;154676
119862;154703
119884;154680
119906;154662
119918;154673
119909;154698
119919;154682
119905;154711
119903;154720
119881;154702
119924;154688
119895;154686
119913;154709
119903;154730
119909;154726
119880;154732
119904;154716
119946;154696
119909;154713
119896;154731
119909;154737
119890;154740
119912;154736
119894;154750
119920;154728
119911;154734
119894;154757
119896;154764
119918;154723
119916;154760
119931;154779
119951;154749
119932;154792
119894;154802
119910;154790
119934;154761
119939;154758
119921;154809
119928;154803
119919;154815
119914;154832
119932;154815
119958;154777
119939;154806
119925;154823
119949;154819
119950;154836
119910;154818
119939;154816
119953;154755
119914;154738
119869;154727
119867;154690
119881;154637
119849;154612
119846;154572
119873;154531
119832;154525
119805;154536
119818;154517
119843;154484
119826;154499
119843;154490
119836;154476
119820;154485
119791;154487
119778;154484
119814;154426
119813;154425
119811;154470
119810;154448
119797;154479
119778;154500
119807;154473
119817;154475
119812;154487
119822;154508
119812;154494
119806;154514
119796;154501
119811;154477
119845;154459
119798;154460
119805;154495
119789;154480
119795;154485
119806;154495
119802;154478
119816;154459
119817;154476
119779;154501
119794;154514
119830;154509
119821;154517
119841;154529
119832;154502
119815;154538
119791;154562
119786;154539
119839;154504
119827;154519
119817;154541
119832;154553
119822;154555
119802;154572
119811;154554
119839;154537
119824;154516
119833;154589
119844;154589
119828;154582
119827;154606
119850;154597
119871;154554
119840;154582
119839;154598
119827;154611
119847;154612
119832;154636
119847;154617
119866;154577
119847;154606
119821;154625
119840;154659
119852;154645
119837;154647
119862;154655
119876;154622
119846;154647
119840;154679
119829;154668
119866;154643
119854;154660
119876;154690
119880;154667
119857;154685
119845;154711
119847;154677
119854;154649
119837;154637
119834;154643
119818;154589
119812;154555
119771;154537
119796;154481
119806;154424
119772;154391
119753;154387
119768;154370
119748;154395
119740;154392
119744;154360
119757;154354
119743;154341
119725;154367
119719;154357
119761;154345
119752;154370
119770;154332
119774;154325
119734;154348
119713;154378
119710;154346
119750;154325
119745;154345
119764;154389
119744;154359
119742;154377
119716;154391
119746;154378
119759;154318
119748;154337
119738;154367
119756;154349
119743;154367
119715;154382
119745;154375
119775;154331
119723;154345
119721;154374
119735;154387
119749;154376
119741;154390
119757;154406
119775;154379
119755;154421
119727;154436
119737;154434
119760;154405
119759;154445
119786;154407
119788;154408
119761;154430
119746;154476
119717;154439
119776;154422
119777;154426
119778;154461
119767;154456
119768;154459
119753;154487
119746;154491
119775;154432
119774;154455
119784;154487
119784;154492
119774;154497
119759;154531
119798;154503
119810;154495
119784;154498
119790;154523
119779;154532
119785;154545
119764;154536
119799;154534
119827;154517
119810;154531
119768;154563
119791;154579
119807;154572
119803;154588
119809;154606
119828;154555
119801;154583
119801;154633
119781;154596
119829;154583
119811;154572
119818;154564
119787;154512
119772;154484
119721;154463
119731;154407
119728;154333
119716;154349
119737;154302
119721;154314
119691;154299
119695;154331
119692;154265
119711;154274
119708;154246
119717;154271
119718;154254
119721;154283
119674;154260
119690;154283
119709;154216
119704;154241
119668;154250
119697;154270
119702;154272
119689;154288
119708;154269
119725;154272
119704;154278
119697;154335
119677;154283
119708;154287
119706;154268
119727;154301
119727;154258
119711;154304
119666;154295
119693;154297
119707;154242
119721;154294
119701;154290
119728;154327
119712;154312
119703;154363
119693;154318
119717;154311
119719;154292
119741;154371
119729;154337
119726;154387
119685;154357
119753;154365
119726;154322
119738;154358
119730;154363
119758;154409
119735;154381
119725;154425
119726;154379
119786;154398
119740;154350
119724;154433
119728;154416
119769;154450
119730;154410
119749;154458
119765;154380
119766;154456
119718;154435
119748;154473
119754;154446
119770;154494
119777;154473
119806;154479
119753;154479
119751;154539
119729;154507
119798;154491
119771;154505
119805;154529
119784;154499
119801;154545
119754;154538
119780;154588
119783;154481
119808;154542
119802;154550
119827;154576
119788;154558
119789;154589
119770;154490
119807;154493
119751;154383
119753;154431
119727;154354
119740;154359
119693;154317
119716;154311
119726;154231
119716;154283
119673;154256
119698;154274
119681;154245
119712;154276
119688;154221
119723;154249
119674;154233
119699;154283
119641;154216
119708;154234
119693;154232
119717;154270
119696;154224
119717;154278
119667;154272
119737;154301
119710;154230
119730;154294
119721;154305
119743;154332
119707;154296
119713;154318
119728;154305
119760;154298
119702;154259
119742;154309
119713;154294
119737;154318
119699;154341
119732;154313
119736;154289
119739;154318
119707;154346
119739;154330
119742;154366
119748;154359
119745;154361
119778;154328
119739;154377
119734;154413
119699;154374
119771;154379
119729;154398
119770;154411
119773;154374
119770;154398
119728;154434
119755;154421
119764;154379
119772;154413
119782;154419
119779;154427
119745;154429
119749;154468
119726;154435
119783;154395
119757;154410
119805;154468
119769;154483
119792;154478
119752;154508
119802;154491
119823;154461
119808;154467
119776;154498
119796;154503
119794;154526
119783;154538
119803;154525
119823;154497
119808;154544
119782;154536
119761;154552
119826;154524
119772;154516
119812;154493
119791;154433
119764;154418
119722;154388
119718;154353
119728;154310
119720;154290
119734;154265
119730;154259
119713;154265
119686;154270
119698;154252
119720;154222
119705;154201
119718;154248
119701;154247
119699;154244
119680;154268
119707;154242
119741;154213
119705;154209
119707;154233
119717;154261
119715;154273
119700;154266
119734;154265
119765;154251
119710;154248
119684;154281
119692;154277
119735;154283
119704;154267
119742;154280
119738;154254
119715;154266
119686;154294
119701;154280
119728;154258
119724;154274
119730;154266
119717;154279
119714;154289
119698;154333
119696;154306
119723;154275
119717;154239
119715;154324
119741;154304
119715;154307
119694;154327
119716;154304
119719;154266
119713;154282
119701;154320
119716;154311
119708;154331
119718;154339
119722;154333
119740;154292
119719;154312
119689;154338
119698;154342
119720;154350
119718;154346
119725;154351
119754;154324
119726;154381
119717;154407
119701;154386
119742;154375
119743;154390
119760;154401
119771;154382
119747;154420
119732;154441
119716;154436
119756;154376
119758;154417
119767;154440
119759;154420
119736;154438
119705;154417
119712;154372
119724;154286
119688;154259
119704;154241
119701;154222
119674;154199
119657;154188
119674;154147
119682;154104
119666;154084
119643;154112
119641;154093
119640;154116
119623;154076
119641;154065
119643;154015
119639;154050
119594;154059
119602;154058
119635;154041
119634;154055
119631;154048
119627;154041
119644;154057
119620;154102
119609;154071
119648;154060
119645;154071
119645;154074
119639;154082
119634;154075
119620;154093
119613;154054
119641;154040
119623;154027
119644;154049
119621;154042
119621;154057
119600;154074
119629;154074
119645;154045
119636;154058
119597;154082
119629;154088
119625;154090
119599;154085
119617;154101
119637;154060
119626;154079
119601;154115
119621;154105
119631;154097
119626;154112
119633;154142
119640;154107
119650;154139
119613;154195
119594;154139
119661;154123
119641;154157
119654;154147
119648;154134
119640;154155
119597;154167
119607;154149
119642;154132
119658;154123
119646;154162
119644;154182
119637;154204
119618;154198
119645;154190
119645;154152
119656;154163
119661;154200
119648;154216
119628;154203
119630;154179
119620;154162
119640;154127
119597;154078
119564;154044
119573;153997
119558;153959
119555;153921
119564;153888
119546;153841
119516;153843
119498;153842
119475;153826
119520;153810
119529;153781
119526;153764
119548;153746
119503;153751
119470;153778
119467;153737
119514;153694
119517;153705
119510;153728
119503;153695
119485;153726
119457;153731
119505;153725
119501;153693
119504;153690
119493;153725
119492;153706
119494;153719
119473;153726
119488;153695
119504;153657
119485;153664
119480;153711
119468;153691
119482;153704
119460;153689
119485;153713
119492;153674
119482;153702
119436;153698
119463;153738
119487;153723
119488;153755
119487;153717
119512;153717
119485;153722
119454;153775
119448;153733
119489;153719
119471;153743
119505;153739
119480;153722
119487;153754
119446;153755
119460;153766
119491;153693
119467;153720
119487;153745
119494;153782
119481;153770
119475;153795
119495;153752
119528;153754
119490;153746
119484;153813
119502;153797
119501;153857
119498;153793
119517;153858
119532;153817
119509;153842
119484;153860
119497;153864
119505;153863
119491;153855
119497;153822
119526;153791
119472;153774
119443;153774
119411;153704
119476;153636
119434;153587
119449;153578
119416;153504
119398;153534
119387;153503
119408;153512
119402;153418
119402;153421
119392;153420
119401;153446
119385;153421
119365;153420
119365;153378
119397;153381
119364;153350
119338;153417
119367;153379
119376;153410
119366;153373
119389;153418
119382;153362
119378;153433
119352;153450
119374;153443
119378;153364
119384;153411
119385;153390
119387;153404
119361;153387
119360;153435
119350;153374
119407;153393
119362;153342
119388;153427
119370;153398
119399;153423
119354;153405
119399;153447
119410;153377
119386;153413
119353;153412
119374;153463
119373;153438
119396;153466
119402;153411
119406;153448
119381;153438
119380;153497
119365;153440
119407;153471
119376;153462
119400;153469
119392;153436
119412;153491
119356;153494
119389;153520
119395;153444
119414;153472
119391;153476
119438;153530
119401;153503
119401;153553
119386;153498
119462;153512
119412;153527
119415;153584
119414;153556
119427;153591
119411;153545
119447;153608
119453;153557
119443;153617
119392;153584
119413;153615
119418;153552
119430;153555
119405;153505
119413;153466
119376;153390
119349;153415
119329;153306
119358;153270
119320;153229
119335;153260
119309;153223
119340;153212
119273;153191
119323;153188
119318;153107
119298;153119
119254;153118
119283;153106
119263;153091
119290;153067
119285;153058
119307;153047
119252;153062
119258;153084
119242;153075
119295;153072
119285;153088
119308;153071
119270;153060
119278;153074
119231;153066
119251;153068
119259;152999
119268;153022
119250;153030
119272;153042
119242;153039
119237;153049
119250;153035
119294;153008
119259;152995
119257;153032
119242;153040
119265;153063
119246;153055
119264;153034
119273;153017
119270;153031
119206;153061
119232;153035
119261;153046
119255;153060
119269;153058
119283;153046
119253;153054
119248;153113
119232;153070
119293;153055
119256;153072
119280;153087
119288;153057
119287;153108
119238;153124
119257;153121
119261;153064
119257;153073
119268;153106
119298;153106
119262;153124
119251;153151
119297;153135
119326;153127
119277;153151
119288;153181
119296;153182
119287;153184
119299;153171
119306;153175
119315;153139
119278;153139
119246;153138
119237;153075
119247;152992
119222;152960
119246;152921
119231;152875
119186;152857
119181;152863
119168;152810
119181;152751
119183;152729
119192;152758
119171;152741
119170;152748
119143;152745
119185;152702
119176;152646
119154;152641
119181;152668
119158;152667
119156;152685
119160;152698
119168;152683
119207;152667
119170;152682
119154;152703
119160;152697
119164;152715
119152;152711
119185;152702
119182;152678
119173;152683
119144;152723
119162;152718
119189;152666
119180;152683
119187;152713
119194;152749
119174;152746
119159;152757
119215;152755
119215;152738
119210;152763
119204;152789
119203;152774
119204;152806
119195;152801
119225;152808
119239;152781
119224;152794
119201;152823
119203;152838
119229;152845
119230;152841
119237;152843
119234;152826
119238;152852
119233;152899
119226;152895
119254;152856
119256;152892
119274;152893
119262;152903
119249;152917
119247;152939
119254;152930
119269;152911
119282;152886
119273;152950
119299;152968
119276;152980
119265;152999
119291;152983
119323;152954
119295;152983
119268;153009
119285;153018
119313;153032
119305;153034
119326;153029
119307;152997
119299;152978
119242;152949
119240;152910
119255;152863
119230;152804
119234;152754
119221;152717
119197;152676
119158;152682
119181;152633
119184;152547
119174;152519
119190;152575
119175;152543
119160;152555
119139;152525
119158;152485
119173;152447
119147;152442
119121;152477
119129;152462
119134;152466
119145;152448
119148;152470
119169;152468
119136;152470
119116;152522
119120;152499
119129;152480
119140;152495
119137;152500
119164;152459
119135;152476
119112;152494
119134;152468
119147;152445
119109;152419
119145;152469
119159;152466
119136;152487
119116;152501
119132;152473
119186;152454
119166;152474
119130;152517
119159;152523
119165;152540
119152;152542
119175;152534
119185;152530
119165;152551
119143;152590
119138;152575
119172;152570
119169;152574
119188;152606
119176;152592
119197;152608
119156;152648
119156;152622
119197;152598
119203;152630
119213;152646
119202;152659
119202;152664
119187;152707
119221;152679
119244;152658
119227;152682
119222;152731
119214;152716
119239;152749
119246;152743
119252;152770
119281;152731
119264;152762
119219;152814
119240;152821
119271;152792
119265;152822
119311;152827
119299;152828
119273;152861
119256;152899
119278;152855
119298;152823
119293;152808
119290;152824
119275;152774
119257;152752
119219;152707
119238;152671
119240;152587
119221;152558
119181;152561
119205;152533
119194;152529
119174;152494
119192;152465
119197;152448
119175;152463
119164;152463
119150;152434
119207;152428
119163;152408
119182;152422
119191;152387
119160;152392
119123;152436
119162;152416
119176;152380
119194;152419
119188;152457
119185;152444
119197;152465
119172;152485
119179;152455
119211;152429
119186;152427
119187;152474
119180;152456
119191;152490
119189;152491
119196;152509
119215;152445
119233;152483
119177;152503
119208;152538
119224;152506
119228;152550
119229;152536
119266;152539
119227;152551
119226;152607
119220;152590
119259;152606
119253;152590
119269;152630
119247;152607
119258;152649
119239;152672
119254;152663
119262;152606
119287;152655
119305;152707
119286;152708
119278;152695
119273;152735
119296;152719
119315;152726
119304;152679
119307;152794
119301;152742
119320;152798
119296;152773
119328;152806
119328;152775
119338;152830
119303;152832
119298;152861
119333;152820
119345;152879
119355;152831
119385;152869
119339;152865
119347;152921
119345;152867
119369;152876
119368;152860
119372;152954
119367;152914
119370;152972
119346;152958
119386;152951
119390;152861
119365;152853
119337;152843
119357;152823
119326;152765
119318;152776
119308;152685
119330;152676
119285;152648
119266;152690
119252;152646
119305;152655
119268;152609
119308;152654
119321;152585
119316;152644
119246;152627
119291;152637
119296;152566
119295;152591
119303;152601
119304;152625
119294;152618
119288;152681
119312;152646
119349;152660
119313;152624
119345;152691
119305;152648
119353;152706
119320;152659
119336;152718
119358;152648
119338;152707
119310;152689
119331;152724
119337;152683
119366;152739
119354;152711
119365;152733
119341;152737
119339;152796
119354;152731
119376;152759
119355;152706
119387;152815
119380;152789
119406;152846
119352;152843
119401;152855
119415;152792
119427;152837
119360;152843
119405;152880
119387;152879
119419;152903
119407;152862
119448;152887
119400;152898
119413;152952
119360;152911
119458;152925
119435;152941
119470;152976
119443;152954
119470;152998
119427;153020
119460;153025
119466;152981
119475;152971
119462;153054
119493;153061
119464;153069
119477;153093
119488;153073
119533;153077
119487;153078
119498;153136
119488;153139
119509;153170
119504;153171
119564;153162
119550;153166
119538;153198
119485;153208
119535;153216
119550;153176
119541;153182
119514;153142
119531;153090
119501;153066
119480;153053
119482;153025
119497;152946
119472;152941
119516;152983
119477;152969
119506;152977
119454;152966
119513;152974
119505;152919
119490;152933
119448;152949
119496;152961
119465;152964
119475;152962
119483;152968
119508;152955
119485;152967
119468;153016
119469;152994
119520;153018
119524;153028
119530;153035
119537;153025
119544;153036
119507;153087
119505;153064
119541;153027
119539;153052
119559;153092
119549;153074
119547;153097
119537;153111
119563;153101
119587;153091
119569;153085
119561;153128
119548;153131
119572;153155
119545;153151
119566;153149
119608;153126
119586;153180
119544;153206
119558;153225
119573;153192
119587;153226
119607;153195
119609;153212
119596;153234
119571;153285
119561;153248
119609;153201
119615;153219
119617;153277
119627;153283
119612;153307
119607;153305
119631;153330
119651;153299
119634;153307
119619;153354
119637;153351
119644;153364
119632;153380
119656;153369
119699;153360
119667;153405
119638;153440
119640;153412
119679;153442
119654;153441
119691;153448
119701;153441
119706;153453
119665;153501
119664;153506
119702;153451
119697;153493
119707;153524
119706;153516
119720;153529
119680;153521
119679;153458
119693;153401
119657;153361
119672;153370
119643;153337
119637;153333
119619;153323
119642;153316
119678;153281
119657;153297
119619;153311
119643;153317
119655;153288
119644;153307
119682;153293
119672;153302
119648;153300
119633;153310
119636;153286
119666;153251
119667;153297
119666;153321
119662;153311
119660;153356
119651;153374
119712;153374
119723;153345
119684;153337
119680;153405
119686;153394
119689;153418
119696;153392
119701;153399
119730;153378
119718;153394
119678;153447
119686;153443
119721;153461
119735;153434
119735;153448
119748;153430
119728;153469
119699;153489
119723;153497
119733;153476
119737;153493
119754;153524
119764;153514
119756;153537
119728;153569
119773;153543
119793;153522
119765;153529
119772;153573
119773;153585
119775;153609
119762;153599
119788;153603
119800;153589
119793;153615
119754;153620
119773;153643
119800;153631
119794;153666
119817;153678
119831;153637
119819;153676
119798;153717
119806;153677
119810;153697
119826;153662
119841;153736
119858;153751
119826;153751
119819;153779
119853;153772
119862;153754
119848;153752
119829;153805
119854;153812
119850;153805
119841;153810
119864;153798
119867;153731
119847;153738
119792;153709
119765;153681
119815;153639
119808;153636
119797;153601
119816;153587
119776;153597
119776;153619
119777;153596
119780;153520
119784;153543
119793;153587
119794;153569
119781;153594
119774;153614
119793;153576
119800;153544
119793;153569
119774;153591
119797;153586
119785;153601
119815;153615
119805;153610
119809;153626
119795;153619
119781;153655
119767;153624
119804;153626
119806;153616
119832;153631
119827;153612
119821;153636
119791;153658
119792;153634
119808;153624
119808;153604
119812;153665
119825;153666
119823;153680
119794;153697
119824;153685
119839;153660
119824;153652
119818;153732
119833;153728
119839;153745
119818;153727
119842;153765
119862;153738
119842;153735
119837;153759
119845;153783
119865;153779
119864;153802
119867;153784
119887;153791
119867;153810
119829;153852
119851;153832
119878;153825
119883;153857
119905;153879
119909;153849
119882;153870
119859;153891
119890;153905
119902;153844
119892;153863
119911;153917
119924;153953
119910;153932
119901;153973
119927;153953
119960;153950
119922;153920
119929;153996
119955;153993
119938;154019
119931;154007
119941;154036
119968;153968
119949;154025
119897;153980
119934;154004
119920;153963
119903;153951
119913;153891
119903;153851
119869;153819
119844;153872
119818;153795
119881;153776
119862;153760
119895;153800
119877;153729
119863;153787
119837;153773
119856;153790
119857;153714
119889;153734
119876;153754
119877;153774
119853;153746
119862;153792
119863;153733
119902;153744
119866;153705
119881;153789
119870;153750
119880;153811
119861;153773
119891;153830
119899;153770
119886;153812
119850;153808
119882;153829
119879;153796
119885;153812
119884;153802
119904;153802
119856;153789
119844;153862
119866;153816
119911;153840
119874;153819
119910;153874
119923;153817
119919;153881
119891;153870
119896;153911
119900;153837
119925;153914
119906;153896
119949;153948
119918;153926
119935;153969
119922;153940
119959;153938
119937;153903
119942;153992
119927;153945
119944;153993
119909;153979
119944;154016
119955;153944
119947;153975
119901;153990
119937;154016
119949;153998
119956;154048
119962;154019
119990;154033
119942;154012
119939;154089
119918;154045
119985;154041
119960;154052
120006;154097
119961;154069
119993;154120
119945;154137
119997;154139
119977;154100
120009;154105
119986;154127
120014;154149
119971;154125
119955;154129
119950;154054
119986;154014
119924;153956
119929;153992
119925;153934
119944;153968
119892;153913
119925;153921
119912;153871
119900;153905
119859;153899
119889;153916
119907;153864
119918;153889
119894;153873
119924;153855
119881;153855
119897;153899
119856;153859
119919;153818
119879;153858
119921;153867
119895;153854
119922;153888
119873;153915
119915;153915
119898;153876
119926;153871
119911;153931
119914;153934
119889;153939
119906;153941
119899;153937
119969;153905
119916;153898
119916;153952
119916;153948
119929;153956
119911;153959
119952;153970
119936;153940
119969;153980
119917;154002
119933;153995
119941;153989
119953;154006
119935;154000
119983;154001
119937;154008
119929;154056
119911;154039
119962;153988
119931;154027
119968;154043
119964;154048
119973;154058
119927;154090
119968;154091
119975;154039
119986;154066
119985;154099
119964;154109
119973;154126
119958;154135
119997;154131
120024;154116
119985;154124
119971;154157
119989;154169
119994;154189
119993;154187
120021;154194
120022;154164
120009;154180
119971;154216
119996;154214
120024;154217
120012;154238
120031;154243
120057;154232
120026;154257
119995;154301
120001;154248
120012;154193
120013;154196
120000;154175
120005;154145
119968;154129
119955;154096
119970;154069
119965;154024
119954;153990
119963;154039
119968;154034
119957;154033
119945;154027
119950;154010
119987;153979
119958;153975
119917;154011
119941;153987
119928;153980
119940;153988
119943;153988
119953;153960
119938;153977
119935;154030
119913;154017
119956;153995
119950;154018
119979;154033
119953;154028
119951;154042
119916;154059
119932;154022
119965;153996
119967;153988
119959;154060
119959;154031
119953;154030
119940;154046
119973;154059
119996;154024
119983;154040
119956;154097
119955;154097
119975;154105
119973;154099
120001;154103
120013;154093
119980;154125
119948;154148
119961;154141
120002;154147
119984;154150
119998;154161
120014;154156
119999;154177
119999;154218
119982;154198
120016;154164
120015;154195
120021;154218
120026;154213
120021;154222
119997;154271
120019;154258
120047;154222
120034;154216
120026;154262
120034;154280
120034;154284
120028;154297
120050;154294
120079;154244
120053;154272
120030;154332
120054;154329
120055;154354
120051;154335
120049;154355
120093;154329
120048;154353
120049;154383
120040;154386
120077;154351
120072;154344
120073;154318
120045;154281
120018;154260
119975;154231
119987;154196
120007;154135
120013;154129
119983;154124
119982;154129
119964;154120
119954;154135
119950;154114
119971;154035
119962;154046
119943;154083
119964;154082
119945;154069
119932;154078
119965;154062
119972;154005
119941;154036
119952;154056
119941;154083
119956;154085
119948;154085
119947;154088
119971;154041
119945;154068
119918;154099
119899;154069
119940;154056
119938;154060
119954;154066
119959;154049
119945;154066
119913;154096
119912;154073
119952;154049
119955;154066
119963;154086
119955;154094
119943;154117
119932;154154
119968;154117
119974;154106
119978;154103
119956;154144
119946;154148
119960;154147
119938;154170
119975;154165
120001;154134
119971;154149
119948;154174
119941;154174
119988;154200
119980;154201
119993;154213
119997;154191
119976;154246
119960;154243
119968;154233
120003;154195
120004;154231
120007;154245
120014;154243
120006;154263
119989;154290
120001;154264
120024;154250
119996;154264
120016;154295
120004;154309
120016;154297
120006;154338
120013;154346
120068;154291
120033;154295
119999;154351
120000;154336
120005;154322
119998;154310
119990;154249
120006;154200
119962;154171
119949;154160
119935;154139
119952;154112
119935;154088
119954;154076
119938;154029
119930;154065
119904;154072
119902;154052
119927;154019
119915;154022
119918;153992
119934;153997
119907;153997
119895;154026
119898;153959
119915;153963
119924;153956
119924;154018
119906;154008
119928;154030
119901;154044
119938;154042
119946;153988
119940;154023
119907;154020
119926;154061
119930;154061
119918;154056
119935;154030
119963;154022
119923;154002
119896;154063
119898;154035
119949;154059
119929;154073
119962;154084
119967;154043
119940;154087
119908;154103
119926;154109
119931;154044
119946;154094
119939;154093
119963;154118
119957;154115
119940;154144
119956;154104
119953;154118
119950;154084
119978;154164
119952;154124
119953;154161
119954;154148
119977;154197
119972;154119
119972;154175
119914;154164
119927;154183
119952;154145
119986;154195
119974;154165
119998;154182
119974;154180
119934;154231
119916;154194
119972;154223
119970;154192
119991;154244
119979;154210
119991;154264
119948;154259
119969;154285
119980;154216
119989;154248
119977;154266
120004;154304
119976;154270
119965;154294
119955;154205
119976;154185
119935;154125
119951;154162
119893;154073
119918;154089
119872;154026
119911;154024
119898;153934
119886;153988
119840;153983
119873;153975
119873;153944
119895;153975
119881;153939
119904;153933
119856;153943
119871;153992
119832;153897
119878;153905
119853;153869
119883;153956
119853;153911
119882;153958
119834;153966
119885;153975
119872;153912
119889;153923
119847;153934
119894;153979
119855;153940
119875;153969
119853;153931
119898;153930
119848;153926
119869;153961
119832;153909
119888;153962
119839;153941
119909;153982
119885;153917
119888;154003
119828;153977
119883;153995
119884;153925
119880;154002
119869;153962
119894;153987
119853;153962
119851;154043
119842;153982
119866;153991
119847;153941
119895;154018
119875;154000
119881;154027
119846;154036
119887;154011
119893;153998
119892;153997
119840;154021
119900;154062
119868;154054
119885;154055
119869;154067
119919;154039
119873;154066
119875;154066
119869;154085
119918;154086
119877;154075
119919;154092
119905;154076
119903;154113
119861;154164
119879;154114
119880;154094
119904;154136
119909;154120
119903;154137
119891;154136
119888;154152
119885;154152
119927;154105
119880;154085
119896;154100
119855;154052
119862;154048
119818;153981
119868;153948
119851;153879
119828;153866
119765;153867
119818;153837
119785;153818
119786;153801
119788;153795
119805;153747
119787;153751
119759;153768
119753;153754
119772;153738
119762;153706
119762;153708
119769;153686
119766;153698
119717;153744
119745;153703
119760;153662
119770;153693
119780;153736
119761;153733
119750;153723
119741;153743
119763;153739
119783;153699
119747;153704
119752;153729
119753;153723
119741;153743
119753;153738
119752;153724
119785;153699
119758;153710
119737;153755
119731;153749
119765;153720
119750;153759
119762;153754
119776;153754
119756;153765
119746;153783
119759;153761
119763;153760
119767;153737
119770;153791
119772;153800
119767;153832
119759;153851
119791;153822
119809;153790
119775;153804
119754;153834
119781;153841
119793;153876
119769;153867
119799;153856
119818;153831
119786;153863
119767;153894
119785;153900
119806;153900
119806;153913
119811;153887
119814;153895
119810;153894
119782;153952
119782;153931
119810;153899
119803;153926
119812;153944
119823;153938
119816;153962
119806;153988
119788;153970
119821;153962
119817;153949
119827;153978
119831;153958
119820;153968
119779;153972
119799;153918
119802;153834
119772;153807
119767;153828
119757;153781
119751;153768
119714;153762
119742;153719
119758;153660
119723;153655
119719;153670
119706;153671
119701;153641
119710;153640
119717;153644
119722;153593
119702;153619
119676;153631
119687;153615
119702;153603
119700;153619
119718;153623
119719;153602
119711;153635
119696;153668
119684;153640
119722;153632
119715;153633
119738;153635
119709;153628
119695;153636
119685;153655
119683;153633
119727;153584
119697;153603
119712;153648
119731;153643
119705;153664
119687;153676
119711;153655
119738;153649
119710;153631
119728;153692
119707;153681
119711;153708
119715;153709
119731;153704
119754;153697
119730;153701
119704;153730
119723;153726
119737;153741
119741;153728
119729;153751
119762;153723
119740;153744
119716;153779
119723;153779
119752;153774
119739;153774
119768;153795
119778;153785
119766;153793
119733;153841
119746;153820
119765;153799
119756;153810
119774;153849
119777;153840
119752;153880
119750;153877
119784;153872
119786;153852
119790;153858
119782;153887
119796;153906
119789;153911
119765;153909
119791;153933
119818;153911
119798;153937
119783;153987
119816;153981
119813;153984
119803;153984
119795;153959
119787;153914
119798;153887
119745;153885
119730;153824
119772;153799
119745;153777
119749;153769
119741;153714
119724;153709
119704;153732
119681;153688
119708;153636
119723;153637
119715;153654
119721;153653
119705;153657
119675;153665
119687;153654
119726;153598
119717;153587
119701;153609
119712;153647
119702;153655
119699;153681
119706;153647
119752;153631
119713;153647
119691;153685
119718;153660
119720;153683
119706;153671
119724;153694
119739;153651
119732;153687
119673;153686
119687;153693
119722;153679
119707;153692
119728;153685
119757;153692
119722;153713
119700;153745
119680;153722
119745;153684
119738;153739
119749;153760
119745;153740
119736;153775
119726;153792
119737;153781
119752;153750
119746;153763
119742;153795
119771;153809
119736;153807
119757;153821
119745;153793
119790;153813
119759;153818
119748;153846
119758;153831
119776;153867
119754;153842
119776;153882
119794;153825
119789;153907
119759;153902
119786;153919
119788;153897
119793;153922
119800;153906
119824;153908
119804;153931
119774;153979
119768;153937
119814;153942
119785;153947
119835;153970
119817;153950
119818;154008
119775;154014
119806;154031
119827;153977
119828;153999
119837;154024
119844;154054
119815;154037
119807;154077
119840;153991
119848;153974
119788;153933
119806;153949
119779;153892
119770;153877
119742;153838
119778;153846
119778;153763
119757;153783
119732;153792
119761;153785
119732;153769
119747;153786
119754;153730
119770;153729
119739;153748
119718;153794
119698;153732
119770;153751
119740;153735
119762;153768
119751;153746
119762;153778
119710;153778
119737;153809
119759;153745
119765;153776
119754;153794
119769;153810
119745;153803
119755;153841
119756;153771
119785;153787
119751;153746
119752;153828
119749;153785
119770;153827
119745;153805
119785;153853
119776;153801
119795;153822
119737;153850
119780;153880
119766;153863
119791;153897
119772;153860
119815;153891
119784;153893
119775;153964
119738;153897
119811;153894
119774;153913
119819;153949
119809;153909
119813;153971
119779;153951
119792;153986
119800;153921
119814;153953
119813;153952
119822;153989
119793;153969
119805;154034
119806;153999
119847;153995
119824;153974
119806;154021
119821;153995
119839;154049
119798;154035
119849;154055
119826;154025
119841;154045
119802;154071
119851;154097
119837;154089
119857;154075
119859;154104
119897;154071
119853;154108
119848;154163
119828;154131
119871;154098
119843;154104
119872;154087
119844;154045
119830;154041
119778;154026
119794;153977
119791;153906
119800;153886
119798;153915
119797;153887
119791;153879
119772;153895
119778;153884
119816;153833
119765;153825
119794;153862
119782;153869
119797;153873
119768;153870
119795;153873
119804;153838
119801;153849
119756;153900
119786;153911
119799;153922
119805;153921
119818;153924
119830;153898
119805;153925
119769;153963
119771;153927
119819;153922
119808;153945
119823;153946
119840;153911
119816;153953
119801;153981
119793;153950
119803;153929
119828;153932
119844;153966
119843;153969
119831;153984
119795;154014
119826;153992
119864;153962
119829;153982
119816;154020
119845;154034
119831;154051
119834;154051
119839;154068
119870;154039
119848;154040
119829;154094
119845;154082
119876;154097
119870;154091
119878;154104
119895;154081
119869;154092
119839;154153
119848;154130
119875;154082
119863;154105
119884;154143
119884;154138
119890;154159
119872;154189
119877;154176
119900;154125
119890;154170
119900;154202
119908;154193
119901;154205
119863;154235
119913;154222
119936;154197
119911;154201
119887;154218
119881;154174
119894;154169
119857;154141
119864;154099
119871;154040
119849;154039
119824;154019
119807;154014
119824;153982
119838;153969
119827;153970
119848;153954
119814;153947
119796;154003
119782;153952
119825;153920
119819;153956
119818;153961
119826;153949
119838;153977
119813;154009
119818;153987
119844;153960
119839;153975
119845;153998
119853;154015
119840;154005
119832;154023
119847;153987
119859;153980
119849;153964
119834;154017
119847;154005
119840;154024
119825;154001
119837;154013
119867;153991
119839;154012
119830;154042
119830;154034
119841;154034
119845;154051
119867;154052
119870;154043
119857;154063
119833;154114
119839;154064
119856;154046
119845;154072
119875;154099
119868;154095
119865;154120
119841;154140
119847;154117
119870;154095
119879;154096
119899;154146
119884;154161
119883;154164
119858;154175
119871;154140
119923;154144
119885;154140
119861;154178
119878;154196
119889;154203
119884;154212
119891;154211
119924;154186
119904;154201
119863;154245
119880;154237
119906;154235
119901;154233
119920;154246
119922;154203
119898;154205
119854;154214
119831;154151
119859;154075
119855;154047
119846;154037
119835;154012
119824;153996
119791;154000
119792;153950
119813;153908
119803;153903
119830;153921
119813;153903
119789;153892
119761;153891
119794;153875
119823;153844
119775;153828
119757;153838
119776;153851
119780;153852
119780;153854
119788;153839
119803;153841
119782;153857
119766;153894
119757;153874
119777;153885
119777;153849
119787;153888
119797;153864
119783;153866
119748;153877
119765;153868
119772;153829
119782;153834
119806;153873
119801;153888
119790;153885
119770;153922
119784;153893
119824;153887
119789;153875
119793;153936
119810;153922
119798;153956
119766;153946
119809;153948
119819;153893
119796;153936
119791;153952
119810;153969
119815;153964
119811;153971
119800;153970
119836;153987
119818;153979
119791;153998
119788;153994
119813;154012
119809;153991
119837;154027
119854;153993
119832;154027
119800;154055
119805;154046
119845;153987
119823;154017
119843;154057
119837;154061
119828;154074
119823;154113
119829;154057
119861;154042
119816;153999
119822;154010
119782;153954
119791;153953
119741;153898
119778;153875
119784;153782
119760;153801
119735;153774
119712;153761
119721;153714
119718;153720
119728;153684
119734;153679
119705;153661
119704;153689
119692;153629
119698;153628
119696;153574
119704;153633
119694;153598
119689;153618
119657;153631
119695;153622
119705;153578
119693;153582
119671;153616
119690;153651
119680;153603
119656;153639
119674;153576
119709;153611
119682;153561
119667;153625
119667;153588
119692;153615
119665;153611
119706;153618
119698;153575
119699;153625
119649;153631
119671;153653
119689;153566
119686;153647
119680;153659
119691;153653
119690;153656
119690;153717
119674;153672
119719;153673
119695;153636
119713;153711
119695;153667
119714;153739
119684;153717
119715;153747
119729;153680
119719;153735
119681;153736
119719;153764
119705;153761
119742;153778
119731;153752
119754;153776
119723;153768
119724;153833
119683;153775
119758;153817
119731;153795
119757;153833
119741;153795
119753;153869
119722;153867
119732;153888
119750;153784
119765;153866
119754;153834
119764;153846
119720;153788
119708;153781
119709;153707
119715;153683
119664;153571
119691;153622
119659;153572
119677;153569
119625;153516
119671;153523
119656;153456
119650;153487
119573;153474
119627;153476
119626;153438
119634;153457
119614;153399
119652;153401
119587;153408
119618;153441
119572;153395
119616;153381
119599;153374
119649;153420
119618;153401
119617;153457
119594;153424
119628;153430
119615;153367
119613;153394
119609;153435
119607;153425
119605;153412
119605;153394
119617;153409
119624;153399
119589;153391
119599;153439
119570;153416
119635;153443
119611;153441
119645;153444
119636;153434
119638;153455
119566;153480
119608;153473
119631;153426
119633;153492
119635;153495
119640;153482
119627;153497
119622;153519
119623;153515
119662;153466
119633;153470
119662;153516
119629;153524
119640;153540
119602;153526
119656;153521
119653;153502
119650;153509
119610;153552
119648;153540
119662;153545
119653;153575
119641;153564
119666;153562
119660;153590
119637;153618
119622;153605
119669;153584
119673;153615
119680;153609
119662;153595
119658;153589
119617;153596
119631;153511
119631;153446
119613;153417
119607;153409
119589;153370
119587;153366
119546;153299
119562;153289
119591;153257
119558;153234
119524;153248
119520;153230
119533;153225
119527;153197
119545;153187
119545;153150
119530;153168
119496;153189
119506;153164
119512;153139
119530;153155
119534;153173
119522;153186
119526;153194
119503;153202
119526;153173
119542;153142
119530;153129
119523;153190
119536;153173
119518;153167
119501;153162
119531;153161
119532;153158
119518;153140
119490;153194
119504;153197
119540;153186
119518;153203
119547;153199
119544;153185
119523;153215
119511;153240
119513;153211
119538;153204
119530;153224
119548;153236
119520;153246
119544;153265
119523;153264
119548;153252
119553;153235
119560;153257
119558;153279
119581;153285
119560;153318
119548;153322
119556;153307
119604;153275
119559;153305
119536;153333
119554;153322
119576;153339
119569;153343
119582;153351
119591;153333
119570;153364
119543;153400
119560;153372
119601;153343
119587;153410
119600;153401
119593;153414
119595;153433
119563;153440
119591;153423
119606;153389
119587;153389
119597;153405
119590;153387
119566;153353
119530;153307
119522;153257
119554;153180
119523;153163
119493;153155
119515;153115
119492;153107
119486;153096
119490;153075
119492;153019
119476;153029
119445;153052
119440;152991
119469;152950
119447;152958
119471;152983
119459;152955
119445;152951
119415;152968
119451;152956
119459;152922
119468;152942
119476;152978
119470;152996
119479;152994
119459;153006
119490;152997
119492;152958
119464;152979
119456;152988
119440;152991
119449;152996
119475;152979
119473;152988
119497;152966
119473;152991
119442;153031
119457;153019
119494;152979
119482;153027
119487;153038
119514;153038
119498;153052
119466;153093
119489;153073
119513;153039
119498;153044
119508;153098
119510;153095
119500;153105
119494;153146
119530;153107
119547;153090
119546;153122
119510;153154
119523;153149
119529;153164
119524;153181
119547;153183
119569;153150
119529;153189
119526;153219
119503;153202
119539;153199
119540;153208
119549;153227
119576;153212
119544;153222
119524;153272
119543;153250
119562;153203
119579;153229
119564;153292
119566;153273
119576;153323
119555;153314
119598;153308
119607;153286
119599;153285
119599;153321
119593;153325
119582;153330
119570;153288
119571;153253
119597;153194
119554;153147
119497;153153
119512;153128
119508;153112
119504;153051
119536;153032
119518;152992
119508;153007
119483;153010
119466;152976
119483;152956
119487;152941
119481;152955
119484;152926
119473;152923
119445;152930
119470;152896
119452;152871
119474;152872
119486;152931
119483;152942
119502;152952
119460;152966
119496;152969
119506;152937
119485;152914
119477;152945
119479;152946
119475;152961
119478;152969
119491;152938
119518;152928
119473;152938
119461;152976
119463;152945
119505;152982
119478;152959
119514;152992
119522;152960
119518;153031
119496;153016
119473;153020
119518;152997
119536;153041
119535;153017
119523;153050
119528;153034
119496;153064
119507;153042
119552;153017
119531;153010
119542;153092
119536;153071
119554;153100
119531;153084
119559;153123
119588;153057
119558;153112
119513;153106
119543;153126
119534;153130
119561;153149
119554;153116
119590;153139
119579;153155
119557;153222
119553;153164
119586;153201
119580;153189
119605;153229
119601;153181
119591;153248
119570;153243
119611;153247
119603;153196
119633;153249
119619;153264
119647;153311
119615;153285
119603;153323
119621;153296
119667;153301
119629;153269
119640;153330
119621;153293
119632;153294
119584;153254
119606;153254
119604;153144
119607;153145
119547;153107
119551;153103
119554;153077
119555;153094
119566;153056
119590;153052
119554;153008
119531;153071
119517;153005
119561;152990
119545;152982
119557;153024
119555;152968
119560;153005
119516;152994
119562;153026
119566;152960
119569;152973
119559;153009
119584;153063
119553;153031
119554;153083
119562;153035
119611;153019
119560;153005
119549;153065
119542;153055
119582;153057
119563;153028
119588;153063
119585;153015
119605;153074
119543;153078
119579;153089
119586;153067
119612;153100
119590;153096
119627;153109
119583;153091
119580;153175
119591;153118
119632;153114
119602;153084
119654;153170
119630;153129
119639;153191
119599;153167
119642;153187
119648;153166
119637;153183
119611;153204
119645;153209
119621;153209
119636;153232
119650;153230
119692;153179
119651;153215
119631;153254
119605;153226
119659;153229
119648;153263
119686;153271
119673;153242
119693;153285
119638;153304
119650;153289
119669;153252
119696;153256
119685;153306
119695;153307
119673;153337
119685;153345
119702;153327
119713;153286
119708;153316
119697;153374
119703;153327
119718;153346
119665;153316
119696;153327
119710;153240
119662;153217
119619;153191
119646;153179
119619;153138
119640;153108
119611;153083
119649;153046
119599;153085
119584;153094
119576;153059
119616;153007
119611;153016
119635;153043
119607;152999
119615;153041
119559;153035
119594;153019
119605;152975
119608;152988
119597;153037
119606;153035
119621;153030
119596;153069
119627;153052
119646;153018
119630;153030
119610;153066
119621;153063
119616;153067
119615;153063
119632;153048
119653;153028
119630;153055
119597;153078
119602;153057
119616;153071
119631;153061
119635;153083
119649;153053
119642;153094
119609;153128
119644;153115
119646;153078
119653;153079
119670;153126
119656;153138
119660;153150
119643;153168
119662;153159
119673;153112
119673;153125
119654;153180
119678;153186
119667;153183
119661;153201
119690;153184
119709;153173
119689;153189
119646;153222
119648;153213
119703;153228
119691;153226
119715;153242
119711;153215
119702;153241
119691;153264
119696;153265
119711;153238
119732;153260
119738;153299
119736;153294
119713;153303
119695;153339
119730;153304
119747;153286
119733;153304
119721;153344
119713;153338
119752;153347
119729;153362
119736;153378
119773;153342
119761;153364
119714;153369
119724;153350
119726;153332
119724;153301
119736;153240
119717;153179
119699;153197
119649;153190
119657;153141
119668;153102
119651;153089
119670;153085
119652;153070
119664;153076
119620;153079
119642;153062
119646;153011
119639;153006
119640;153028
119637;153024
119632;153028
119604;153022
119649;153020
119683;152973
119637;153000
119617;153061
119643;153057
119656;153061
119649;153065
119655;153077
119656;153040
119669;153069
119632;153104
119627;153062
119673;153039
119668;153024
119661;153059
119674;153043
119669;153069
119633;153099
119646;153071
119672;153051
119675;153052
119662;153108
119676;153111
119678;153124
119676;153140
119702;153135
119713;153092
119687;153132
119695;153132
119679;153154
119696;153169
119698;153179
119708;153179
119737;153158
119723;153175
119681;153224
119696;153203
119732;153191
119725;153227
119755;153221
119751;153223
119736;153240
119711;153259
119724;153250
119727;153226
119741;153237
119748;153281
119747;153279
119752;153283
119726;153326
119761;153304
119772;153284
119753;153283
119763;153321
119780;153324
119765;153350
119753;153338
119770;153331
119800;153318
119760;153293
119745;153313
119724;153251
119742;153236
119716;153204
119717;153162
119735;153116
119706;153121
119672;153134
119655;153102
119698;153026
119692;153072
119712;153045
119708;153053
119692;153039
119648;153074
119664;153052
119681;153006
119677;152991
119676;153052
119672;153024
119652;153052
119654;153044
119682;153051
119703;153006
119688;153052
119666;153058
119676;153057
119687;153056
119674;153084
119694;153052
119711;153041
119689;153066
119664;153071
119659;153066
119691;153046
119710;153046
119693;153074
119715;153067
119696;153072
119672;153114
119672;153079
119711;153052
119693;153066
119709;153111
119713;153113
119704;153119
119687;153156
119714;153147
119719;153137
119732;153122
119721;153163
119710;153151
119727;153162
119727;153180
119729;153167
119747;153137
119739;153179
119720;153206
119722;153195
119744;153196
119748;153206
119752;153205
119769;153212
119748;153209
119750;153257
119725;153225
119760;153224
119762;153211
119775;153258
119778;153250
119759;153294
119721;153262
119769;153241
119759;153137
119743;153161
119726;153131
119735;153138
119692;153092
119703;153095
119699;153043
119716;153005
119679;153005
119660;153037
119653;153002
119693;153025
119679;152991
119701;153026
119700;152963
119709;153007
119656;153027
119658;153007
119689;152934
119696;153010
119701;152986
119698;153016
119694;153016
119690;153043
119690;153032
119726;153040
119693;152977
119720;153059
119710;153040
119706;153078
119691;153058
119702;153061
119726;152993
119723;153045
119685;153049
119708;153070
119724;153057
119714;153079
119724;153066
119754;153088
119733;153085
119721;153134
119693;153081
119759;153102
119746;153090
119768;153144
119757;153111
119773;153164
119716;153142
119746;153185
119754;153120
119773;153188
119747;153179
119782;153209
119740;153196
119759;153213
119769;153176
119811;153198
119766;153182
119766;153239
119740;153223
119781;153266
119787;153257
119805;153273
119813;153228
119807;153283
119766;153291
119796;153312
119792;153252
119808;153277
119803;153239
119811;153252
119767;153201
119773;153206
119747;153137
119773;153094
119749;153044
119744;153107
119729;153068
119743;153076
119706;153038
119743;153048
119749;152986
119730;153029
119691;153019
119737;153051
119712;153034
119745;153032
119731;153007
119768;153010
119719;153033
119731;153089
119709;153043
119753;153058
119723;153044
119747;153078
119740;153050
119760;153106
119702;153065
119742;153062
119727;153026
119761;153037
119716;153063
119765;153084
119724;153083
119745;153094
119740;153060
119783;153049
119747;153064
119747;153112
119740;153112
119780;153105
119761;153134
119779;153116
119787;153102
119784;153139
119753;153170
119780;153161
119776;153134
119799;153171
119782;153160
119800;153157
119780;153200
119783;153210
119779;153203
119816;153149
119785;153166
119816;153214
119793;153224
119817;153244
119776;153247
119823;153236
119842;153197
119829;153235
119792;153269
119825;153275
119809;153292
119835;153285
119828;153272
119831;153250
119819;153252
119798;153254
119777;153218
119793;153168
119778;153140
119768;153122
119763;153079
119748;153076
119724;153051
119740;153029
119740;152978
119745;152984
119720;152999
119730;152975
119718;152972
119705;152942
119719;152950
119739;152907
119714;152910
119678;152940
119691;152941
119718;152928
119718;152934
119726;152952
119736;152909
119714;152946
119677;152967
119699;152965
119722;152909
119712;152945
119718;152941
119718;152938
119727;152934
119693;152954
119701;152936
119729;152916
119727;152912
119715;152958
119726;152952
119727;152974
119703;152968
119720;152961
119758;152951
119738;152963
119680;152998
119712;153008
119746;153001
119729;153008
119760;153006
119768;152994
119733;153035
119715;153062
119704;153040
119753;153008
119735;153021
119755;153050
119764;153060
119746;153067
119740;153086
119737;153067
119769;153026
119765;153020
119761;153086
119755;153069
119758;153084
119741;153104
119764;153092
119764;153081
119765;153084
119748;153119
119759;153116
119772;153134
119766;153141
119786;153113
119782;153084
119762;153084
119716;153082
119688;153035
119748;152934
119714;152933
119704;152919
119695;152886
119685;152863
119669;152863
119662;152807
119701;152764
119677;152759
119668;152791
119648;152765
119654;152771
119635;152753
119641;152726
119661;152690
119647;152697
119601;152730
119636;152719
119652;152726
119644;152740
119662;152753
119679;152736
119652;152752
119636;152782
119637;152762
119674;152742
119669;152739
119673;152770
119645;152747
119651;152764
119637;152770
119644;152765
119664;152724
119662;152729
119674;152788
119679;152794
119665;152798
119660;152810
119707;152799
119717;152780
119678;152802
119673;152834
119666;152851
119683;152855
119679;152862
119692;152853
119712;152849
119708;152860
119669;152909
119679;152888
119704;152876
119707;152909
119733;152900
119702;152895
119703;152913
119695;152927
119703;152945
119723;152900
119722;152897
119719;152947
119722;152975
119736;152959
119700;153012
119753;152993
119773;152959
119743;152972
119716;153021
119755;153029
119762;153039
119762;153041
119778;153060
119801;153051
119766;153054
119738;153089
119747;153069
119758;153020
119759;153011
119739;152997
119743;152955
119715;152920
119696;152901
119687;152838
119707;152773
119690;152755
119703;152804
119687;152772
119671;152758
119658;152764
119684;152762
119692;152706
119679;152720
119657;152720
119680;152717
119659;152706
119661;152723
119695;152690
119671;152670
119670;152704
119653;152756
119641;152727
119695;152730
119684;152760
119697;152755
119673;152733
119702;152761
119666;152769
119680;152748
119691;152723
119696;152733
119702;152748
119675;152753
119687;152760
119683;152787
119698;152774
119717;152758
119705;152785
119687;152816
119700;152802
119707;152814
119708;152825
119719;152834
119729;152807
119720;152854
119690;152855
119686;152862
119723;152864
119730;152844
119745;152880
119745;152896
119730;152897
119722;152934
119732;152906
119765;152896
119751;152905
119760;152984
119755;152969
119773;152974
119735;152962
119794;153017
119805;152946
119792;153004
119760;153015
119784;153039
119805;153038
119805;153053
119810;153056
119831;153043
119817;153080
119793;153146
119796;153098
119831;153115
119819;153104
119845;153173
119828;153118
119837;153174
119813;153169
119832;153160
119840;153092
119826;153079
119812;153075
119811;153075
119797;153024
119781;153025
119781;152953
119810;152920
119761;152883
119739;152931
119745;152886
119766;152907
119730;152852
119763;152888
119756;152832
119752;152855
119718;152843
119729;152866
119723;152811
119750;152838
119747;152819
119753;152835
119745;152828
119731;152927
119747;152862
119796;152883
119763;152838
119791;152945
119770;152893
119786;152933
119751;152919
119795;152939
119790;152866
119805;152905
119752;152901
119794;152943
119776;152921
119790;152972
119800;152918
119820;152949
119807;152946
119780;153020
119765;152971
119819;152983
119813;152990
119846;153035
119815;152994
119831;153034
119781;153040
119820;153057
119818;153007
119849;153040
119837;153073
119863;153095
119841;153069
119847;153132
119833;153089
119899;153078
119839;153106
119849;153153
119849;153112
119865;153149
119844;153139
119872;153161
119859;153133
119896;153181
119836;153197
119852;153204
119885;153182
119915;153205
119907;153195
119910;153222
119880;153225
119891;153275
119872;153253
119932;153233
119897;153241
119926;153293
119915;153266
119922;153292
119891;153310
119938;153290
119928;153207
119900;153202
119862;153197
119866;153163
119841;153131
119860;153096
119846;153067
119863;153034
119833;153022
119809;153040
119808;153021
119855;153005
119818;152988
119852;152990
119838;153000
119840;152989
119769;153003
119814;152975
119826;152950
119846;152949
119840;152998
119855;153015
119833;153041
119837;153060
119844;153026
119892;153005
119820;153009
119834;153043
119852;153050
119861;153063
119843;153058
119867;153041
119866;153038
119857;153051
119832;153070
119819;153056
119861;153055
119860;153063
119868;153073
119904;153075
119882;153103
119849;153129
119846;153120
119907;153098
119885;153098
119906;153162
119904;153161
119898;153170
119858;153206
119906;153182
119922;153147
119902;153165
119883;153219
119909;153202
119909;153237
119921;153238
119931;153228
119962;153220
119936;153246
119898;153266
119889;153269
119943;153267
119936;153269
119945;153297
119963;153289
119944;153286
119932;153336
119937;153311
119954;153291
119956;153308
119954;153335
119986;153346
119968;153386
119961;153396
119978;153385
120015;153367
119986;153389
119988;153420
119987;153414
119985;153393
119944;153362
119978;153331
119982;153269
119926;153251
119896;153221
119885;153193
119890;153155
119899;153144
119893;153106
119904;153086
119869;153086
119859;153115
119846;153059
119882;153026
119884;153040
119869;153050
119886;153037
119872;153047
119844;153041
119853;153022
119877;152997
119857;153011
119865;153043
119881;153067
119873;153078
119851;153071
119882;153076
119897;153032
119875;153059
119854;153081
119865;153087
119891;153081
119872;153085
119904;153069
119906;153055
119880;153086
119858;153105
119858;153098
119896;153070
119883;153066
119888;153116
119897;153104
119895;153124
119874;153145
119897;153135
119908;153143
119909;153129
119917;153175
119928;153172
119919;153193
119898;153182
119929;153199
119953;153178
119925;153202
119908;153236
119903;153223
119949;153241
119934;153237
119955;153252
119952;153241
119949;153266
119921;153318
119934;153276
119981;153246
119948;153291
119971;153319
119970;153302
119969;153325
119951;153353
119956;153334
119968;153331
119981;153305
119979;153374
119996;153387
120000;153402
119990;153411
119997;153395
120027;153401
120006;153414
119970;153437
119995;153441
120002;153425
119994;153422
120008;153402
119993;153327
119976;153313
119933;153302
119926;153242
119938;153204
119927;153195
119938;153183
119935;153147
119918;153146
119882;153143
119886;153122
119924;153064
119905;153047
119929;153097
119921;153090
119888;153074
119892;153092
119891;153069
119925;153050
119891;153051
119867;153088
119903;153067
119911;153115
119902;153098
119917;153093
119936;153086
119910;153106
119868;153137
119882;153127
119917;153079
119904;153109
119925;153115
119926;153093
119908;153101
119879;153130
119894;153115
119919;153083
119911;153092
119925;153142
119918;153148
119933;153158
119901;153168
119918;153176
119976;153152
119933;153147
119917;153199
119959;153208
119925;153210
119927;153242
119953;153220
119968;153210
119949;153242
119923;153258
119931;153258
119975;153245
119951;153265
119960;153275
119979;153279
119958;153301
119952;153333
119964;153308
119995;153288
119984;153295
119987;153333
119993;153346
119979;153368
119976;153374
119997;153367
120037;153343
119998;153347
119995;153409
119986;153381
120019;153433
120014;153441
120009;153423
120038;153401
120028;153444
119987;153460
119994;153477
120042;153447
120034;153457
120033;153414
120039;153402
120001;153357
119985;153359
119951;153282
119976;153230
119973;153197
119983;153216
119958;153196
119959;153218
119913;153198
119969;153181
119979;153139
119954;153145
119935;153160
119934;153168
119927;153142
119940;153163
119957;153127
119956;153129
119937;153114
119923;153192
119906;153151
119971;153161
119947;153152
119971;153219
119991;153170
119960;153218
119929;153237
119933;153212
119965;153159
119976;153185
119975;153201
119974;153238
119985;153210
119958;153256
119956;153242
119992;153228
119971;153185
119976;153284
119974;153246
119993;153297
119974;153297
120005;153310
120025;153255
120029;153314
119971;153323
119992;153359
120002;153333
120029;153377
120040;153346
120073;153382
120022;153362
120022;153448
120009;153377
120055;153410
120043;153407
120069;153443
120063;153431
120071;153496
120039;153479
120082;153497
120089;153444
120089;153460
120065;153486
120081;153543
120078;153505
120085;153520
120090;153515
120114;153537
120079;153529
120090;153590
120068;153556
120118;153606
120097;153606
120148;153634
120126;153572
120131;153640
120087;153667
120101;153633
120097;153537
120124;153584
120076;153524
120099;153525
120055;153482
120065;153466
120048;153387
120062;153401
120031;153352
120057;153395
120018;153346
120039;153374
120012;153339
120050;153360
120050;153297
120032;153347
119992;153333
120016;153351
120016;153312
120035;153367
120031;153325
120074;153347
120026;153354
120038;153410
120011;153379
120065;153370
120040;153341
120075;153415
120067;153385
120065;153397
120008;153417
120075;153409
120046;153380
120073;153377
120047;153396
120093;153404
120045;153430
120064;153436
120071;153448
120113;153430
120070;153440
120056;153477
120044;153475
120109;153507
120083;153503
120115;153503
120120;153495
120116;153535
120069;153574
120107;153571
120115;153513
120133;153562
120113;153576
120152;153575
120125;153606
120114;153633
120109;153606
120153;153598
120129;153584
120173;153651
120132;153648
120155;153664
120143;153668
120153;153680
120173;153644
120180;153674
120136;153708
120167;153701
120176;153726
120177;153748
120181;153753
120199;153728
120190;153771
120163;153781
120155;153777
120197;153789
120190;153772
120203;153772
120216;153727
120174;153730
120123;153711
120106;153641
120143;153564
120118;153547
120135;153575
120118;153554
120101;153535
120090;153542
120105;153505
120123;153464
120100;153460
120087;153504
120088;153484
120087;153489
120089;153499
120098;153495
120115;153451
120094;153499
120055;153494
120056;153503
120114;153493
120112;153508
120110;153514
120141;153493
120117;153503
120079;153549
120100;153529
120111;153466
120109;153474
120122;153547
120117;153528
120103;153552
120098;153561
120110;153550
120163;153523
120112;153524
120102;153583
120126;153581
120130;153577
120113;153594
120130;153609
120152;153586
120137;153620
120104;153651
120105;153636
120153;153658
120147;153653
120170;153657
120170;153651
120142;153674
120142;153699
120139;153693
120162;153655
120176;153699
120161;153704
120187;153717
120175;153721
120145;153733
120161;153743
120179;153704
120181;153709
120188;153748
120197;153770
120197;153786
120159;153819
120200;153801
120235;153777
120200;153775
120187;153819
120181;153844
120201;153862
120210;153879
120219;153867
120248;153856
120227;153867
120183;153893
120199;153885
120215;153850
120190;153817
120212;153790
120189;153725
120162;153720
120119;153721
120116;153652
120140;153622
120137;153603
120133;153577
120120;153562
120105;153570
120087;153582
120097;153565
120103;153505
120111;153502
120117;153550
120099;153532
120111;153552
120075;153555
120105;153540
120124;153493
120113;153504
120096;153524
120115;153556
120106;153564
120093;153576
120123;153577
120130;153530
120117;153558
120098;153580
120082;153575
120110;153561
120117;153572
120122;153563
120117;153568
120107;153577
120088;153615
120105;153601
120127;153551
120116;153604
120142;153606
120139;153632
120131;153650
120118;153647
120133;153675
120151;153629
120148;153636
120152;153664
120140;153679
120136;153702
120135;153695
120156;153708
120191;153673
120146;153694
120134;153732
120172;153726
120167;153741
120141;153741
120179;153750
120181;153731
120170;153779
120153;153791
120150;153776
120184;153812
120172;153793
120184;153812
120213;153797
120193;153804
120168;153848
120195;153835
120200;153824
120213;153858
120219;153868
120232;153881
120209;153887
120202;153904
120209;153912
120247;153848
120230;153878
120232;153928
120244;153892
120223;153882
120189;153883
120200;153823
120228;153751
120174;153728
120146;153748
120148;153685
120145;153684
120129;153662
120145;153661
120157;153598
120126;153636
120097;153637
120121;153610
120114;153608
120126;153603
120138;153584
120126;153578
120102;153571
120076;153607
120084;153575
120117;153524
120115;153548
120139;153611
120101;153592
120123;153617
120102;153612
120131;153605
120126;153577
120129;153563
120109;153603
120141;153631
120105;153616
120095;153619
120115;153592
120146;153572
120124;153562
120098;153609
120106;153623
120120;153650
120112;153633
120139;153665
120150;153604
120148;153680
120097;153699
120102;153690
120164;153670
120136;153695
120151;153698
120179;153708
120152;153693
120121;153777
120141;153727
120154;153711
120151;153721
120187;153773
120164;153752
120173;153789
120146;153778
120176;153797
120197;153749
120195;153765
120162;153787
120179;153846
120183;153812
120179;153858
120192;153803
120230;153826
120179;153819
120180;153868
120172;153837
120218;153896
120214;153862
120219;153913
120234;153872
120226;153948
120198;153930
120205;153945
120221;153916
120235;153962
120227;153926
120257;153966
120225;153916
120214;153948
120176;153866
120214;153839
120178;153813
120204;153796
120169;153752
120171;153767
120136;153726
120162;153721
120161;153649
120149;153653
120136;153664
120159;153704
120137;153666
120124;153705
120139;153661
120170;153653
120122;153609
120129;153668
120116;153643
120135;153689
120125;153664
120152;153715
120173;153649
120169;153722
120119;153718
120141;153731
120143;153707
120171;153729
120149;153693
120175;153716
120153;153716
120151;153780
120114;153718
120178;153729
120127;153729
120186;153768
120151;153723
120177;153762
120138;153762
120187;153788
120176;153720
120200;153757
120196;153783
120201;153846
120185;153818
120181;153841
120187;153814
120235;153827
120194;153811
120203;153867
120195;153854
120219;153886
120180;153888
120212;153921
120222;153868
120235;153925
120189;153936
120213;153931
120225;153916
120236;153923
120231;153942
120267;153926
120224;153950
120229;153993
120234;153973
120264;153960
120238;153963
120268;154004
120250;154033
120269;154024
120234;154058
120289;154031
120316;154013
120290;154031
120266;154073
120279;154082
120285;154093
120269;154100
120273;154061
120306;154009
120254;154003
120229;154015
120190;153968
120242;153921
120211;153881
120231;153885
120213;153840
120222;153875
120175;153888
120195;153845
120205;153798
120205;153803
120213;153839
120211;153838
120190;153828
120185;153847
120183;153834
120197;153808
120194;153795
120194;153861
120187;153831
120198;153868
120194;153864
120213;153881
120242;153837
120212;153874
120197;153887
120162;153883
120215;153874
120210;153864
120212;153858
120218;153816
120199;153845
120163;153894
120185;153871
120222;153845
120203;153883
120222;153906
120200;153890
120214;153897
120184;153930
120209;153917
120217;153893
120220;153900
120221;153946
120212;153947
120218;153943
120204;153981
120224;153961
120245;153957
120226;153955
120226;153977
120247;153982
120231;154001
120223;153990
120246;154015
120276;153953
120237;153999
120214;154025
120223;154036
120262;154029
120253;154021
120264;154041
120285;154009
120262;154055
120232;154101
120234;154078
120282;154055
120239;154078
120267;154091
120269;154067
120271;154111
120258;154142
120257;154106
120282;154089
120272;154089
120255;154089
120253;154053
120237;154035
120197;154011
120196;153947
120227;153904
120192;153857
120187;153874
120193;153846
120182;153835
120152;153837
120165;153828
120174;153779
120155;153776
120134;153805
120140;153799
120147;153791
120129;153767
120136;153757
120155;153734
120142;153761
120117;153780
120129;153783
120156;153785
120141;153798
120148;153783
120163;153767
120136;153780
120126;153810
120099;153772
120138;153738
120129;153747
120150;153749
120140;153760
120129;153765
120128;153777
120122;153779
120145;153736
120116;153747
120131;153784
120150;153779
120124;153804
120133;153787
120141;153795
120163;153760
120144;153790
120125;153801
120136;153809
120138;153824
120131;153834
120156;153835
120169;153808
120130;153850
120110;153865
120114;153846
120163;153831
120152;153858
120165;153851
120167;153839
120155;153847
120127;153885
120105;153870
120160;153847
120159;153844
120157;153870
120148;153881
120153;153892
120143;153917
120148;153916
120169;153851
120158;153885
120165;153939
120175;153923
120162;153947
120148;153972
120199;153939
120207;153899
120178;153923
120169;153948
120148;153928
120169;153938
120128;153897
120130;153856
120158;153796
120120;153784
120067;153771
120084;153721
120085;153702
120070;153666
120081;153670
120074;153628
120067;153653
120056;153682
120040;153623
120058;153610
120060;153582
120069;153607
120058;153587
120048;153583
120012;153603
120044;153592
120039;153531
120050;153567
120065;153605
120071;153588
120058;153623
120038;153611
120050;153595
120070;153575
120043;153581
120043;153620
120041;153610
120043;153610
120010;153604
120053;153605
120057;153558
120047;153586
120027;153621
120027;153621
120062;153634
120051;153631
120064;153614
120063;153620
120064;153655
120026;153686
120024;153656
120060;153659
120064;153683
120083;153686
120071;153673
120078;153702
120041;153723
120047;153716
120079;153678
120080;153691
120088;153715
120080;153714
120081;153732
120084;153763
120103;153743
120120;153744
120087;153729
120103;153785
120101;153771
120107;153803
120078;153803
120114;153826
120137;153763
120110;153813
120072;153838
120094;153857
120097;153828
120122;153860
120124;153840
120147;153852
120117;153865
120095;153926
120093;153852
120144;153875
120104;153854
120110;153865
120115;153779
120089;153795
120047;153759
120045;153737
120050;153630
120049;153639
120042;153612
120034;153617
120012;153584
120011;153598
120012;153563
120045;153535
120000;153487
119988;153550
120003;153516
119985;153549
119960;153506
119999;153515
120024;153472
119994;153523
119961;153523
119962;153526
119995;153487
119997;153532
119974;153523
120024;153542
120003;153527
119976;153577
119977;153539
120010;153509
119986;153473
120019;153551
119988;153502
120000;153542
119960;153511
120006;153531
120009;153480
119985;153527
119966;153515
119999;153541
119963;153535
119985;153557
119977;153513
120006;153507
119955;153479
119934;153535
119895;153452
119940;153457
119919;153424
119938;153433
119922;153378
119917;153409
119842;153363
119863;153348
119859;153236
119873;153261
119833;153222
119844;153231
119799;153206
119791;153211
119796;153153
119852;153174
119802;153097
119825;153185
119845;153175
119908;153237
119871;153165
119901;153178
119874;153081
119876;153104
119795;153043
119803;153073
119760;152970
119754;152993
119725;152898
119745;152917
119684;152860
119660;152912
119601;152765
119638;152733
119572;152576
119589;152583
119521;152460
119514;152450
119436;152351
119445;152299
119424;152201
119405;152132
119338;152144
119359;152131
119319;152100
119308;152055
119300;152030
119336;151979
119274;151988
119284;152009
119298;152002
119361;152010
119311;151977
119321;151930
119394;151872
119328;151881
119275;151827
119220;151737
119207;151618
119183;151577
119118;151521
119123;151493
119081;151462
119055;151484
119052;151462
119080;151420
119046;151402
119079;151465
119031;151451
119068;151461
119037;151494
119085;151509
119101;151507
119094;151515
119050;151487
119077;151454
119037;151408
118999;151360
119005;151314
118975;151297
118945;151253
118900;151285
118891;151234
118948;151239
118932;151241
118933;151282
118941;151282
118937;151257
118918;151256
118917;151202
118909;151130
118864;151056
118843;151024
118818;150969
118781;150941
118742;150894
118763;150862
118765;150776
118700;150735
118660;150736
118645;150656
118622;150595
118591;150552
118591;150501
118581;150436
118557;150431
118511;150415
118484;150350
118486;150238
118532;150207
118513;150083
118477;149959
118404;149853
118299;149787
118233;149682
118208;149573
118155;149501
118137;149439
118089;149331
118048;149302
117995;149253
118002;149220
118031;149194
118043;149233
118074;149305
118080;149362
118117;149439
118122;149525
118163;149538
118183;149510
118129;149458
118082;149413
118006;149256
117944;149003
117963;148852
118040;148748
118100;148638
118041;148547
118022;148469
117991;148330
117822;148114
117614;147968
117527;147869
117455;147796
117409;147768
117362;147824
117385;147811
117423;147847
117474;147924
117532;148070
117550;148158
117564;148206
117548;148242
117551;148177
117535;148086
117444;147923
117463;147733
116976;147247
113983;142957
112009;137801
112146;136863
112736;137503
113165;138817
114242;141088
115542;143531
116137;144454
116223;144756
116333;144987
116458;145233
116576;145539
116711;145833
116862;146103
117033;146327
117174;146612
117272;146831
117318;146980
117343;147092
117328;147105
117253;146994
117169;146740
116995;146408
114754;143574
112681;138323
117992;140974
118050;140862
115805;139593
112930;137830
113398;139287
115531;142932
116547;145179
116598;145363
116602;145522
116656;145636
116745;145731
116778;145924
116818;146101
116875;146242
116983;146383
117037;146544
117104;146644
117142;146657
117101;146669
116991;146565
116837;146159
113724;142424
120929;142045
122985;142292
122320;141417
121316;140632
119576;139759
117163;138602
113177;136564
113751;139091
115158;142058
115359;142589
115473;142939
115659;143355
115822;143708
115988;143996
116091;144196
116107;144340
116146;144395
116109;144336
115977;144171
115843;143886
115702;143497
115403;143162
114920;142330
115097;142451
115247;142512
115231;142491
115247;142447
115242;142447
115206;142442
115105;142332
115028;142181
115033;141984
114927;141887
114914;141846
114890;141769
114894;141805
114921;141888
114962;141958
115029;142019
115174;142242
115260;142519
115355;142652
115324;142624
115170;142425
114942;142026
110912;136226
122915;140253
124287;139605
123932;138705
123508;138002
122817;137741
121557;137671
118379;136997
113056;134902
113522;138998
113782;139671
114025;139996
114194;140429
114351;140744
114383;140881
114348;140844
114237;140648
114014;140275
113867;139887
113213;139205
112118;137010
112393;137309
112738;137885
113269;138787
113590;139136
113696;139218
113812;139430
113890;139602
113988;139898
114099;140178
114210;140452
114290;140632
114392;140787
114402;140882
114368;140891
114216;140596
114023;140135
112358;137976
110749;133020
116980;136444
116558;136072
114423;134936
111201;133062
111444;134699
113627;138801
113745;139186
113872;139489
114044;139859
114225;140383
114419;140786
114641;141130
114728;141363
114787;141588
114752;141491
114614;141276
114402;140872
114034;140251
113233;138858
112313;137226
112330;137083
112667;137556
113322;138477
113641;139049
113820;139183
113848;139156
113891;139165
113799;139203
113792;139197
113863;139261
113832;139303
113921;139384
113964;139457
114056;139667
114114;139894
114233;140171
114376;140378
114504;140643
114512;140724
114441;140592
114068;140071
110008;133869
122591;138610
124338;138191
123723;137484
123030;137135
122203;136792
120668;136346
118192;135471
111098;132498
113594;138111
113891;139019
114069;139401
114399;140013
114666;140545
114893;141064
115015;141314
115134;141537
115089;141509
114922;141373
114619;140756
113429;139545
110157;133131
117451;136372
119255;136953
118125;136269
117468;135672
116705;135057
115400;134192
113286;133093
109532;131098
113502;137225
113898;138907
114074;139365
114244;139668
114545;140138
114660;140473
114774;140825
114754;140765
114630;140580
114233;140060
110923;135914
116578;135250
119408;136219
119268;135787
118219;135036
116884;134224
114695;133092
111201;131348
111565;133916
113471;138105
113711;138699
113933;139097
114312;139704
114578;140337
114809;140831
114893;141067
114901;141131
114681;140860
114483;140298
112270;137631
110187;131694
115247;134499
115615;134485
113889;133396
111884;132165
109563;130946
112171;135393
113595;138582
113733;138842
113804;139093
114111;139495
114318;140045
114647;140606
114870;141129
115056;141550
115081;141769
115047;141700
114759;141267
114590;140724
111585;137149
114985;135330
118091;136577
118566;136521
117212;135682
115245;134574
111377;132609
112784;136200
113760;138704
113957;139123
114178;139599
114464;140157
114737;140685
114946;141195
115060;141568
115112;141690
115052;141541
114793;141126
114609;140631
113466;139400
111496;136195
110368;133565
110491;133520
110639;133646
110892;134094
111360;135023
111780;135673
112449;136753
113591;138252
113990;139002
113960;139102
114107;139399
114296;139848
114531;140312
114763;140797
114923;141187
115020;141354
114984;141307
114687;140843
110761;136504
123607;139194
124504;136568
123315;134083
122679;133155
122547;132984
122774;133964
122484;135129
119924;135515
110954;132263
113402;138460
113578;138939
113799;139342
114056;139992
114234;140487
114316;140649
114295;140558
113991;140079
112637;138541
119153;137219
123642;137683
123583;136512
123086;135988
122606;135713
121845;135592
120291;135517
114844;133980
112935;136981
113040;137793
113213;138130
113515;138657
113824;139374
114112;140079
114367;140580
114520;140901
114468;140881
114228;140409
111249;137162
123306;138903
123944;135878
122511;132923
121647;131490
121393;131117
121962;132142
122454;134159
120735;135223
110311;131047
113430;138294
113659;138867
113812;139291
113987;139837
114109;140132
114114;140176
113887;139843
113140;138971
114805;133795
121072;137363
122013;136804
120974;136260
119833;135808
117673;135070
110272;132067
113206;137888
113302;138320
113382;138643
113583;139111
113884;139718
114116;140332
114353;140773
114463;141022
114420;141011
114075;140513
111995;138058
120011;138018
122743;138159
121731;137427
120621;136839
119006;136242
114879;134715
112487;135945
113430;138349
113514;138618
113705;139097
113982;139694
114213;140249
114400;140718
114513;140948
114398;140783
114022;140167
117866;136582
124514;138206
123757;134940
123215;134108
122945;133710
123002;134156
122717;135060
120362;135674
111007;131891
113362;138026
113505;138521
113742;138975
114015;139628
114245;140208
114349;140612
114351;140608
114124;140134
113178;139043
118496;137381
123500;137915
123918;136437
123581;135750
123183;135811
122416;135957
119480;135771
111348;133323
113257;137779
113452;138237
113669;138855
114021;139589
114275;140120
114281;140253
114109;140045
113897;139518
113086;138570
110601;133369
116838;136150
116132;135508
112970;133836
110251;132596
112557;136728
113264;138058
113329;138243
113412;138445
113585;138785
113737;139147
113845;139473
113952;139723
114108;139949
114141;140112
114084;140035
113807;139489
112111;137336
121348;138259
124619;137199
124167;135441
123770;135218
123487;135318
122903;135653
119783;135781
110563;131862
113188;137765
113335;138133
113528;138481
113760;139100
113953;139527
114057;139771
113940;139680
113401;138996
118862;137125
123936;136465
121906;131843
119633;128141
118842;126981
119232;127402
120657;129357
121981;131970
121061;134286
110622;131054
113192;137666
113422;138256
113553;138663
113797;139245
113886;139457
113812;139375
113184;138691
117270;135873
123235;136381
122340;132746
120617;129548
119926;128337
120200;128767
120931;130059
121497;131315
121410;133099
112985;132596
112766;136702
112954;137194
113096;137636
113288;138185
113489;138576
113482;138458
113258;138233
112307;137125
119686;136334
123269;134784
121104;130052
120263;128459
120321;128475
120894;129457
121552;130910
121575;133056
113177;132497
112341;136014
112606;136572
112749;136903
113005;137563
113193;138108
113360;138447
113364;138435
113153;138146
111928;136777
121325;136998
123345;133942
121731;130570
121490;130089
121446;130046
121839;130805
122296;132457
119642;134205
111522;133102
112517;136572
112764;137042
113005;137499
113271;138132
113368;138505
113395;138523
113067;137979
112749;132212
123787;136628
122361;131940
121748;130767
121645;130798
121772;131077
122160;132286
121824;133660
116076;133608
112456;136034
112663;136737
112764;137138
113103;137834
113431;138518
113670;139081
113730;139263
113582;139027
112326;137626
119784;137083
123692;136394
123374;134534
123086;134220
122828;134401
122257;134801
119156;134902
111070;132384
112845;136934
112917;137201
113233;137780
113515;138568
113889;139308
114091;139819
114121;139913
113751;139321
113468;133403
124479;137318
121863;131178
117998;125475
114689;120709
114738;120263
116548;122382
119124;125488
122961;131937
115676;134228
113170;136611
113397;137159
113701;137751
113976;138405
114229;138910
114275;139139
114159;138958
113384;138089
120114;137373
123868;134878
120619;129017
117342;124300
116375;122453
117600;124039
120059;127038
122726;132624
113476;133428
113100;136947
113350;137594
113537;138122
113831;138837
114151;139474
114322;139824
114245;139825
113845;139288
120263;138038
123569;134761
119008;127212
116243;123207
115367;121676
116396;122791
118572;125628
121351;129576
119402;134913
113413;137338
113716;138266
113938;138823
114249;139669
114590;140536
114851;141102
114985;141336
114828;141128
114172;140259
122207;139497
123946;135459
120626;129533
119232;127282
119098;126811
120105;128147
121542;130371
122656;134314
110916;132475
113984;138932
114222;139596
114491;140209
114848;141127
115194;142043
115471;142647
115652;143033
115647;143052
115383;142529
114446;141338
123053;140786
125139;137632
124006;134818
124034;135216
123859;135410
123544;136250
118818;136838
114226;139346
114404;140141
114536;140488
114795;141037
115128;141793
115431;142534
115625;143011
115722;143204
115568;142976
115231;142360
119516;139264
125335;138894
122357;132388
120962;130000
120870;129856
121380;130634
122395;132362
123016;135278
111482;134767
114624;140162
114805;140751
115004;141266
115288;141990
115553;142649
115724;142954
115719;143005
115289;142387
113273;136797
125000;140219
124384;135518
123879;134262
124051;135110
123985;135958
121138;137449
113774;137169
114552;140159
114640;140516
114860;141074
115177;141847
115508;142647
115784;143376
116027;143832
116143;143977
116005;143751
115433;143085
121943;141583
125426;139212
123326;134523
121981;131963
122111;132127
122841;133523
123404;135357
120199;137649
114396;140273
114930;141238
115062;141703
115330;142266
115579;142977
115776;143497
115854;143688
115832;143505
115429;142852
113390;137660
124655;141103
125385;138265
124890;137236
124650;137580
124204;137839
121708;138287
113323;136373
114942;140922
115045;141286
115232;141861
115579;142540
115923;143232
116143;143804
116290;144209
116336;144275
116066;143742
113514;140127
126403;141109
121797;131797
119793;128490
119367;127932
120004;128616
121611;130840
123243;133939
120394;137616
115061;140919
115266;141496
115356;141965
115536;142463
115816;143041
115981;143472
116097;143702
116042;143612
115736;143072
114520;141673
122370;141012
125406;139606
124940;138098
124377;138131
123652;138176
121112;138156
112213;134303
114900;140678
114977;140845
115025;141053
115210;141539
115428;142059
115664;142568
115871;143002
115970;143267
115959;143197
115600;142601
121757;141088
124906;137155
120118;129114
118783;127104
118372;126486
119267;127443
121366;130441
123113;134449
117216;136855
114626;140237
114832;141021
115043;141529
115332;142235
115626;142974
115771;143371
115840;143458
115595;143004
113037;140382
124797;140799
122928;134336
118334;127235
114351;121908
112920;119641
114416;121062
118042;125162
122412;131945
119770;137319
115104;140458
115361;141317
115472;141694
115665;142199
115851;142729
115896;142952
115855;142841
115115;141964
122627;140991
124310;136346
118711;127354
114904;122057
113807;120387
114620;121153
116971;123746
118729;126191
120780;128853
122809;132818
122832;134043
122042;132691
121745;132207
121583;132119
121437;132085
121395;132276
121353;133086
120813;134193
118581;134743
111676;132985
113652;137967
113948;138927
114075;139497
114248;140000
114537;140787
114843;141467
115186;142315
115486;142954
115762;143651
115983;144240
116223;144797
116437;145228
116622;145720
116797;146065
116961;146416
117048;146693
117163;147023
117231;147207
117353;147396
117419;147561
117509;147492
117547;147614
117625;147783
117654;147892
117719;148033
117773;148097
117820;148258
117869;148389
117890;148511
117946;148585
117992;148750
118032;148793
118134;148896
118101;148968
118132;149116
118162;149186
118235;149301
118230;149365
118318;149479
118324;149508
118352;149644
118357;149686
118399;149773
118429;149779
118463;149883
118488;149920
118521;150021
118528;150051
118543;150160
118562;150172
118621;150205
118622;150245
118676;150370
118667;150388
118716;150476
118702;150499
118762;150573
118775;150562
118793;150646
118774;150674
118831;150764
118833;150783
118859;150838
118895;150861
118928;150875
118894;150928
118918;151037
118909;151002
118972;151039
118965;151059
118981;151132
118973;151129
119025;151182
118977;151201
119030;151214
119020;151199
119040;151199
119039;151224
119050;151230
118999;151231
119037;151205
119003;151182
119054;151134
119013;151140
119030;151170
119003;151181
119046;151183
119016;151184
119060;151187
119040;151179
119044;151214
119026;151236
119032;151222
119056;151214
119067;151220
119062;151221
119069;151244
119056;151252
119049;151322
119069;151323
119125;151275
119099;151321
119129;151390
119115;151373
119122;151418
119088;151417
119140;151409
119159;151410
119148;151421
119110;151432
119117;151467
119153;151478
119159;151478
119163;151497
119195;151507
119180;151537
119159;151585
119171;151568
119196;151567
119190;151589
119223;151617
119209;151657
119223;151665
119207;151695
119220;151705
119240;151707
119247;151679
119253;151755
119263;151766
119279;151797
119258;151821
119292;151806
119320;151789
119317;151828
119267;151880
119302;151880
119310;151917
119325;151925
119343;151931
119359;151940
119343;151968
119327;152012
119319;152025
119357;151983
119363;152034
119400;152061
119379;152073
119384;152089
119371;152118
119392;152134
119432;152100
119416;152131
119431;152195
119447;152198
119428;152225
119423;152247
119431;152236
119447;152210
119435;152203
119389;152215
119393;152205
119422;152193
119411;152159
119433;152141
119422;152099
119400;152113
119371;152185
119384;152142
119419;152095
119421;152152
119439;152144
119458;152149
119434;152171
119424;152204
119426;152179
119434;152144
119453;152130
119449;152202
119446;152207
119438;152238
119436;152259
119474;152260
119516;152235
119483;152274
119469;152303
119499;152308
119486;152335
119488;152323
119504;152334
119503;152314
119478;152331
119462;152364
119454;152349
119502;152339
119505;152354
119504;152371
119525;152359
119524;152387
119480;152440
119507;152408
119511;152388
119527;152394
119541;152449
119548;152476
119548;152483
119529;152508
119569;152517
119585;152497
119566;152509
119554;152542
119560;152560
119582;152573
119547;152586
119557;152588
119605;152571
119582;152631
119567;152638
119562;152643
119598;152617
119592;152650
119606;152674
119609;152669
119620;152709
119607;152737
119604;152703
119627;152696
119639;152667
119667;152765
119649;152742
119637;152777
119614;152805
119650;152773
119670;152785
119656;152782
119665;152805
119652;152839
119665;152853
119663;152840
119680;152860
119697;152813
119652;152839
119630;152835
119624;152802
119618;152778
119616;152744
119635;152714
119632;152665
119598;152665
119563;152697
119583;152662
119587;152592
119568;152638
119593;152612
119595;152641
119585;152655
119557;152665
119585;152618
119608;152592
119597;152539
119573;152630
119566;152613
119577;152627
119557;152637
119591;152653
119613;152588
119577;152652
119573;152683
119577;152691
119595;152679
119617;152698
119624;152684
119625;152685
119612;152711
119577;152725
119596;152734
119626;152690
119611;152714
119649;152752
119624;152737
119638;152781
119615;152797
119640;152806
119648;152783
119646;152786
119645;152839
119659;152850
119656;152863
119650;152873
119672;152859
119683;152843
119677;152909
119655;152919
119643;152911
119684;152941
119678;152924
119702;152953
119709;152932
119701;152983
119676;153016
119680;152997
119705;152962
119703;152995
119718;153003
119717;153041
119700;153028
119681;153058
119723;153031
119725;153018
119717;153024
119720;153084
119718;153068
119727;153111
119729;153082
119739;153124
119743;153091
119738;153116
119706;153124
119736;153169
119768;153151
119750;153173
119754;153162
119761;153146
119721;153124
119692;153134
119665;153069
119698;153037
119688;152996
119681;153012
119671;152983
119652;152974
119623;152955
119666;152945
119672;152878
119647;152915
119644;152936
119657;152971
119638;152938
119634;152938
119648;152928
119679;152900
119657;152895
119634;152955
119635;152929
119671;152983
119671;152950
119693;152994
119685;152983
119686;153028
119655;153021
119687;153053
119700;152973
119688;153039
119697;153036
119694;153054
119668;153052
119674;153086
119671;153058
119692;153036
119702;153019
119703;153107
119710;153092
119707;153138
119688;153100
119720;153149
119743;153096
119724;153148
119683;153141
119729;153195
119720;153181
119753;153220
119755;153170
119751;153191
119720;153186
119721;153266
119704;153218
119768;153223
119749;153205
119786;153278
119740;153245
119761;153291
119716;153278
119756;153297
119767;153219
119753;153268
119749;153299
119761;153326
119744;153293
119758;153353
119771;153314
119811;153313
119753;153323
119755;153352
119748;153329
119782;153383
119757;153352
119796;153373
119794;153330
119784;153396
119717;153387
119761;153381
119788;153347
119777;153361
119756;153317
119772;153301
119728;153270
119704;153274
119693;153222
119719;153186
119704;153149
119746;153192
119720;153190
119743;153200
119679;153215
119712;153195
119743;153144
119720;153151
119682;153174
119718;153188
119699;153180
119701;153201
119703;153191
119745;153187
119708;153203
119691;153249
119676;153235
119735;153250
119724;153248
119755;153254
119745;153244
119743;153264
119705;153288
119718;153263
119739;153230
119732;153242
119719;153270
119765;153287
119712;153301
119732;153320
119728;153298
119780;153306
119745;153276
119755;153329
119742;153341
119765;153362
119743;153359
119772;153375
119800;153354
119776;153378
119716;153412
119727;153407
119768;153377
119773;153394
119764;153409
119785;153393
119756;153419
119740;153442
119749;153428
119767;153387
119777;153397
119788;153445
119770;153441
119772;153475
119750;153484
119776;153468
119808;153443
119795;153448
119779;153495
119792;153499
119781;153514
119787;153521
119801;153518
119802;153499
119792;153526
119765;153565
119773;153569
119799;153527
119780;153502
119766;153488
119789;153451
119745;153455
119690;153416
119703;153358
119731;153311
119714;153283
119717;153307
119705;153295
119696;153283
119657;153298
119690;153254
119701;153224
119698;153206
119686;153250
119671;153240
119671;153241
119681;153215
119689;153231
119692;153212
119661;153228
119648;153261
119645;153257
119686;153243
119687;153284
119697;153249
119705;153253
119677;153281
119648;153295
119670;153270
119672;153230
119677;153235
119684;153268
119661;153260
119672;153277
119650;153281
119682;153275
119705;153264
119673;153270
119646;153304
119697;153310
119685;153303
119676;153325
119694;153333
119709;153321
119699;153326
119668;153366
119676;153365
119697;153347
119706;153343
119692;153369
119712;153385
119704;153368
119670;153414
119698;153390
119718;153384
119709;153382
119724;153431
119722;153429
119708;153415
119694;153452
119716;153444
119745;153399
119705;153419
119705;153449
119694;153457
119712;153460
119703;153459
119714;153462
119752;153457
119714;153481
119677;153526
119692;153501
119711;153469
119719;153475
119728;153500
119701;153476
119686;153454
119663;153436
119655;153386
119651;153324
119658;153274
119645;153291
119621;153271
119623;153249
119613;153237
119606;153220
119629;153180
119612;153171
119569;153197
119609;153196
119585;153185
119589;153167
119589;153148
119601;153118
119584;153132
119560;153172
119542;153170
119581;153143
119593;153154
119591;153159
119605;153187
119592;153179
119568;153215
119568;153191
119601;153161
119600;153140
119596;153210
119603;153195
119592;153217
119567;153201
119579;153207
119606;153162
119605;153181
119594;153228
119587;153230
119619;153246
119598;153253
119600;153256
119632;153252
119606;153264
119590;153288
119586;153271
119609;153272
119608;153293
119625;153296
119655;153298
119623;153312
119610;153360
119615;153324
119616;153287
119641;153307
119631;153353
119643;153363
119618;153387
119618;153393
119628;153355
119661;153346
119645;153352
119626;153394
119630;153414
119638;153420
119629;153416
119677;153436
119671;153410
119662;153432
119616;153480
119629;153470
119654;153471
119669;153480
119672;153468
119685;153465
119655;153474
119647;153508
119613;153449
119636;153397
119607;153374
119619;153360
119605;153306
119572;153304
119559;153270
119560;153253
119560;153162
119555;153171
119557;153206
119554;153199
119541;153185
119525;153186
119522;153151
119543;153147
119526;153112
119483;153163
119510;153126
119526;153135
119500;153130
119525;153154
119533;153112
119507;153145
119471;153150
119493;153176
119510;153123
119525;153181
119516;153151
119532;153175
119503;153151
119481;153197
119491;153144
119516;153151
119493;153129
119507;153188
119497;153169
119513;153206
119491;153187
119527;153205
119526;153130
119522;153214
119476;153195
119492;153239
119495;153242
119529;153264
119509;153215
119536;153234
119509;153249
119491;153303
119482;153251
119526;153267
119509;153255
119540;153308
119525;153277
119540;153302
119462;153319
119510;153324
119525;153267
119535;153299
119517;153294
119531;153335
119499;153321
119490;153366
119516;153314
119558;153321
119524;153297
119527;153362
119514;153358
119549;153377
119520;153349
119555;153387
119551;153346
119561;153387
119502;153409
119519;153408
119545;153400
119557;153408
119527;153399
119559;153394
119516;153379
119481;153371
119445;153305
119489;153235
119441;153186
119480;153211
119426;153162
119440;153183
119381;153128
119425;153100
119403;153037
119430;153022
119375;153039
119384;153068
119366;153029
119375;153052
119371;152989
119410;152992
119357;152945
119328;153032
119330;152993
119362;153021
119339;153001
119386;153018
119369;152975
119389;153045
119332;153051
119336;153046
119359;152991
119387;153020
119365;153019
119381;153023
119347;153036
119345;153049
119345;153015
119354;152981
119357;153002
119360;153047
119347;153035
119383;153063
119339;153057
119376;153077
119381;153036
119371;153051
119336;153096
119371;153105
119356;153104
119376;153110
119374;153109
119418;153080
119355;153119
119344;153163
119358;153141
119398;153115
119362;153153
119405;153152
119391;153151
119394;153186
119379;153202
119381;153186
119381;153158
119412;153151
119384;153212
119413;153225
119382;153222
119379;153245
119391;153244
119423;153194
119392;153202
119372;153275
119383;153246
119396;153288
119389;153269
119405;153275
119418;153260
119406;153295
119385;153314
119380;153318
119406;153316
119410;153321
119404;153321
119417;153313
119398;153347
119372;153352
119395;153319
119414;153281
119391;153262
119395;153235
119367;153203
119343;153191
119300;153151
119321;153071
119318;153006
119304;152988
119274;152997
119278;152969
119263;152963
119260;152951
119265;152923
119278;152884
119258;152888
119215;152899
119241;152904
119247;152884
119231;152872
119249;152874
119263;152843
119224;152869
119204;152921
119206;152902
119261;152884
119260;152889
119264;152922
119244;152924
119254;152928
119216;152948
119239;152928
119227;152913
119239;152894
119247;152920
119248;152905
119236;152935
119212;152945
119252;152950
119277;152923
119252;152913
119225;152969
119240;152981
119243;152976
119240;152990
119258;152991
119278;152959
119266;152986
119230;153032
119236;153010
119261;153030
119253;153038
119274;153035
119285;153033
119253;153040
119245;153075
119256;153055
119271;153050
119270;153060
119271;153073
119277;153096
119270;153076
119255;153107
119256;153100
119285;153086
119274;153099
119282;153140
119297;153143
119291;153168
119269;153150
119296;153164
119314;153126
119279;153153
119269;153178
119284;153181
119279;153215
119293;153199
119298;153210
119319;153182
119290;153230
119291;153250
119289;153247
119323;153228
119313;153258
119334;153285
119347;153288
119332;153309
119298;153337
119318;153308
119343;153288
119324;153244
119315;153266
119283;153216
119268;153179
119244;153185
119262;153113
119241;153044
119231;153018
119196;153011
119212;153000
119194;152994
119191;152972
119185;152948
119218;152909
119184;152921
119155;152935
119138;152903
119167;152889
119166;152890
119163;152899
119175;152864
119145;152880
119138;152906
119142;152886
119154;152854
119158;152878
119179;152925
119182;152932
119167;152968
119142;152955
119173;152964
119194;152944
119186;152914
119185;152963
119183;152963
119176;152951
119165;152981
119185;152966
119213;152934
119174;152957
119152;152994
119181;153010
119199;153014
119190;153020
119191;153020
119217;153014
119214;153037
119185;153070
119168;153065
119203;153079
119217;153093
119215;153111
119236;153092
119218;153111
119203;153138
119217;153144
119220;153102
119237;153127
119252;153180
119248;153176
119228;153199
119221;153231
119253;153192
119252;153189
119240;153176
119248;153221
119248;153232
119251;153264
119231;153249
119254;153268
119284;153245
119264;153256
119218;153302
119236;153332
119270;153302
119277;153329
119287;153322
119304;153323
119266;153329
119268;153375
119230;153339
119284;153337
119290;153352
119304;153398
119306;153396
119312;153422
119270;153418
119299;153427
119299;153375
119300;153381
119295;153382
119296;153388
119253;153342
119236;153309
119262;153254
119258;153214
119212;153183
119190;153194
119200;153151
119179;153150
119186;153117
119198;153133
119192;153101
119198;153131
119130;153128
119159;153133
119180;153071
119184;153122
119180;153092
119212;153121
119166;153118
119155;153143
119171;153121
119186;153116
119184;153089
119208;153181
119207;153150
119197;153202
119169;153200
119191;153183
119222;153132
119188;153138
119178;153175
119198;153203
119167;153180
119184;153178
119203;153163
119212;153173
119181;153163
119181;153211
119184;153211
119199;153228
119188;153204
119221;153228
119215;153205
119208;153244
119171;153270
119171;153268
119212;153203
119218;153280
119220;153274
119225;153312
119210;153311
119196;153309
119207;153294
119244;153282
119231;153265
119242;153353
119215;153315
119224;153378
119204;153349
119241;153353
119263;153313
119254;153380
119204;153366
119233;153406
119218;153390
119234;153393
119244;153398
119270;153383
119235;153416
119229;153458
119220;153423
119264;153456
119257;153411
119274;153477
119264;153450
119273;153493
119236;153509
119262;153505
119257;153440
119280;153469
119270;153506
119288;153531
119255;153518
119247;153531
119242;153480
119270;153429
119243;153376
119211;153421
119194;153349
119207;153334
119172;153287
119194;153279
119180;153203
119171;153249
119109;153218
119142;153243
119150;153166
119165;153216
119150;153192
119173;153196
119139;153209
119145;153228
119124;153180
119164;153159
119146;153174
119160;153204
119163;153198
119164;153228
119140;153265
119195;153233
119186;153210
119193;153207
119162;153276
119178;153268
119173;153264
119163;153253
119164;153250
119204;153225
119160;153246
119147;153267
119112;153259
119195;153281
119154;153273
119205;153279
119175;153293
119196;153291
119162;153348
119189;153335
119180;153305
119204;153334
119211;153341
119221;153372
119190;153389
119186;153408
119199;153393
119234;153370
119223;153382
119233;153440
119231;153450
119234;153461
119216;153471
119227;153486
119263;153452
119249;153463
119192;153517
119229;153502
119249;153522
119246;153517
119260;153548
119264;153531
119263;153545
119231;153590
119247;153582
119275;153572
119286;153588
119287;153589
119284;153603
119284;153620
119252;153659
119286;153664
119301;153622
119306;153634
119316;153685
119303;153712
119317;153717
119282;153729
119321;153704
119328;153700
119303;153641
119301;153659
119286;153628
119269;153599
119243;153574
119241;153513
119276;153467
119244;153469
119195;153450
119203;153455
119212;153442
119207;153419
119198;153396
119239;153377
119187;153404
119173;153423
119171;153383
119203;153372
119194;153381
119205;153400
119212;153377
119190;153382
119165;153398
119174;153410
119193;153399
119198;153382
119211;153417
119191;153430
119191;153414
119178;153446
119201;153423
119211;153397
119206;153382
119199;153422
119184;153416
119191;153430
119187;153428
119221;153430
119231;153385
119196;153417
119162;153452
119188;153473
119216;153476
119205;153483
119220;153479
119244;153492
119223;153473
119177;153530
119167;153518
119243;153482
119220;153512
119229;153525
119218;153557
119224;153559
119202;153569
119225;153545
119246;153535
119236;153528
119230;153576
119235;153597
119240;153595
119221;153598
119234;153581
119255;153576
119237;153569
119220;153611
119239;153626
119241;153624
119241;153628
119280;153632
119271;153603
119234;153645
119220;153687
119209;153653
119256;153659
119267;153654
119279;153670
119266;153685
119240;153693
119238;153678
119219;153637
119233;153579
119206;153550
119194;153525
119195;153470
119163;153458
119145;153434
119154;153400
119165;153357
119133;153328
119144;153349
119118;153345
119130;153338
119105;153314
119129;153295
119144;153268
119124;153288
119088;153293
119109;153293
119088;153277
119105;153283
119136;153274
119139;153268
119123;153289
119082;153348
119100;153324
119113;153291
119142;153347
119150;153339
119130;153323
119126;153354
119106;153362
119115;153352
119147;153312
119124;153325
119147;153346
119140;153364
119126;153347
119123;153374
119140;153395
119163;153365
119153;153381
119141;153394
119143;153410
119158;153431
119139;153428
119172;153454
119184;153434
119168;153453
119155;153495
119160;153492
119170;153501
119185;153470
119197;153502
119207;153498
119164;153527
119154;153549
119167;153516
119190;153502
119181;153470
119208;153557
119190;153554
119188;153594
119172;153587
119196;153577
119214;153546
119208;153546
119185;153581
119196;153612
119195;153606
119198;153630
119198;153605
119243;153602
119210;153619
119190;153645
119182;153661
119208;153635
119217;153661
119217;153642
119215;153601
119194;153572
119161;153548
119137;153531
119141;153423
119136;153396
119135;153376
119117;153383
119098;153344
119071;153362
119100;153279
119105;153257
119071;153216
119074;153267
119070;153229
119063;153281
119035;153211
119056;153225
119051;153176
119052;153195
119030;153179
119015;153222
119047;153206
119060;153246
119074;153224
119089;153247
119048;153243
119028;153284
119032;153247
119059;153216
119026;153221
119072;153261
119059;153230
119057;153276
119016;153234
119042;153239
119036;153220
119069;153215
119035;153240
119064;153280
119043;153276
119038;153303
119058;153278
119092;153261
119060;153260
119032;153345
119033;153300
119073;153348
119071;153306
119090;153344
119082;153293
119062;153357
119041;153355
119055;153354
119074;153291
119101;153353
119084;153367
119091;153375
119054;153396
119070;153395
119060;153382
119100;153378
119080;153343
119092;153414
119089;153415
119103;153440
119066;153417
119113;153464
119096;153398
119111;153471
119055;153457
119062;153496
119105;153462
119115;153523
119117;153489
119140;153500
119095;153510
119093;153572
119067;153481
119123;153478
119098;153424
119097;153448
119052;153396
119078;153381
119003;153310
119022;153286
119023;153188
119013;153152
118965;153133
118981;153157
118935;153096
118962;153093
118944;153039
118972;153021
118938;153016
118923;153034
118895;152999
118914;152970
118893;152960
118920;152966
118922;152922
118924;152944
118872;152973
118883;152951
118900;152930
118928;152939
118915;152989
118924;152982
118894;152983
118911;152992
118918;152966
118928;152952
118898;152949
118919;152972
118912;152980
118913;152984
118895;152977
118916;152981
118927;152958
118933;152999
118897;152990
118893;153004
118921;152997
118934;153038
118924;153027
118955;153022
118909;153041
118908;153074
118903;153053
118931;153035
118926;153040
118937;153098
118927;153090
118928;153109
118905;153109
118933;153089
118957;153103
118941;153086
118940;153128
118957;153151
118941;153135
118946;153170
118959;153144
118994;153139
118941;153187
118927;153189
118936;153189
118968;153187
118973;153198
118992;153218
118995;153227
118975;153225
118963;153273
118952;153274
119006;153230
118985;153252
118998;153291
119014;153303
119010;153312
118981;153348
118992;153320
119029;153312
119002;153295
119002;153306
118979;153283
118968;153248
118939;153194
118949;153153
118950;153079
118919;153061
118875;153043
118848;152982
118870;152971
118864;152925
118868;152908
118869;152880
118835;152875
118804;152878
118789;152840
118835;152787
118824;152775
118817;152814
118804;152774
118798;152802
118765;152795
118810;152759
118805;152721
118804;152756
118803;152794
118793;152793
118803;152802
118784;152793
118800;152795
118828;152759
118803;152789
118803;152802
118779;152797
118801;152760
118802;152771
118815;152803
118815;152757
118781;152814
118761;152818
118786;152818
118800;152786
118812;152773
118801;152833
118816;152849
118803;152860
118782;152882
118812;152854
118846;152841
118822;152850
118786;152890
118815;152893
118806;152910
118815;152916
118828;152920
118850;152905
118828;152927
118792;152923
118792;152925
118827;152941
118826;152943
118854;152950
118840;152946
118832;152968
118813;153013
118825;152986
118841;152944
118842;152950
118844;152985
118860;152997
118855;153034
118827;153032
118854;153021
118878;153020
118857;153020
118819;153035
118839;153059
118864;153080
118848;153084
118863;153091
118888;153046
118858;153072
118814;153122
118810;153059
118830;153018
118828;152978
118816;152930
118806;152871
118776;152838
118734;152812
118741;152747
118732;152690
118723;152667
118723;152680
118710;152673
118688;152640
118665;152631
118702;152628
118712;152534
118672;152538
118631;152545
118664;152544
118664;152558
118666;152545
118652;152510
118671;152525
118652;152518
118618;152569
118626;152556
118655;152546
118648;152529
118667;152560
118674;152552
118649;152558
118636;152583
118646;152565
118636;152515
118660;152510
118649;152564
118644;152554
118652;152550
118631;152574
118662;152585
118677;152536
118669;152577
118645;152602
118660;152607
118672;152644
118661;152630
118693;152627
118691;152598
118687;152643
118649;152665
118649;152659
118694;152620
118700;152672
118698;152671
118694;152698
118689;152699
118645;152741
118674;152705
118703;152676
118687;152675
118694;152726
118688;152754
118701;152760
118693;152764
118712;152762
118749;152736
118704;152749
118676;152784
118687;152803
118712;152803
118727;152835
118730;152802
118739;152812
118715;152827
118728;152879
118691;152857
118730;152843
118738;152860
118744;152893
118767;152887
118739;152934
118707;152907
118761;152937
118758;152867
118747;152891
118736;152873
118738;152912
118713;152827
118703;152805
118687;152723
118675;152674
118640;152638
118617;152650
118598;152577
118622;152558
118594;152512
118609;152524
118612;152452
118571;152477
118553;152465
118541;152442
118563;152369
118564;152409
118566;152375
118562;152417
118529;152386
118532;152385
118568;152344
118570;152363
118553;152327
118580;152395
118559;152389
118567;152420
118537;152410
118579;152436
118567;152352
118564;152411
118508;152396
118523;152435
118553;152382
118563;152421
118548;152402
118581;152400
118556;152407
118535;152452
118533;152427
118571;152425
118549;152400
118572;152478
118549;152458
118582;152513
118547;152483
118599;152511
118582;152447
118593;152498
118558;152496
118591;152541
118563;152537
118590;152569
118572;152536
118619;152552
118589;152564
118582;152591
118558;152581
118618;152595
118586;152585
118651;152634
118615;152605
118619;152645
118581;152657
118616;152663
118619;152610
118638;152625
118623;152660
118632;152685
118623;152694
118616;152725
118627;152689
118671;152706
118630;152681
118626;152766
118632;152744
118670;152788
118645;152768
118680;152776
118688;152738
118675;152806
118633;152826
118653;152824
118678;152822
118688;152852
118685;152844
118687;152814
118651;152784
118642;152779
118620;152738
118633;152649
118593;152589
118600;152589
118571;152554
118583;152529
118545;152516
118566;152470
118575;152404
118579;152436
118509;152415
118550;152416
118530;152419
118554;152378
118522;152386
118545;152349
118510;152366
118491;152402
118483;152352
118539;152335
118510;152343
118540;152390
118524;152375
118541;152394
118496;152422
118533;152440
118525;152384
118536;152390
118534;152438
118550;152427
118531;152425
118528;152444
118534;152430
118580;152404
118532;152420
118507;152446
118531;152476
118541;152479
118563;152485
118573;152499
118577;152471
118557;152510
118521;152558
118563;152549
118585;152510
118577;152536
118607;152558
118577;152559
118575;152588
118548;152606
118575;152587
118599;152562
118596;152561
118605;152626
118595;152649
118613;152657
118579;152649
118602;152643
118626;152622
118628;152657
118585;152690
118625;152677
118635;152706
118637;152714
118656;152708
118647;152701
118631;152735
118611;152774
118603;152773
118654;152734
118663;152763
118674;152818
118669;152785
118672;152816
118649;152845
118672;152830
118693;152793
118694;152817
118683;152884
118693;152876
118687;152898
118669;152886
118700;152891
118722;152865
118703;152877
118656;152906
118641;152856
118667;152813
118636;152761
118640;152715
