r_channel;ir_channel
1738;2060
1769;2038
1745;2015
1756;2046
1753;2051
1755;2046
1774;2022
1736;2062
1757;2046
1750;2013
1753;2033
1744;2049
1738;2039
1773;2030
1742;2039
1726;2036
1747;2051
1747;2050
1780;2022
1730;2059
1750;2053
1741;2031
1741;2049
1762;2043
1729;2060
1763;2042
1743;2015
1753;2041
1749;2047
1723;2081
1761;2025
1760;2030
1756;2038
1743;2056
1736;2053
1782;2019
1749;2038
1725;2047
1757;2058
1755;2059
1781;2027
1735;2049
1749;2052
1753;2055
1761;2038
1766;2014
1727;2056
1768;2038
1755;2039
1766;2039
1741;2050
1727;2067
1766;2043
1733;2026
1760;2034
1740;2060
1741;2050
1771;2021
1738;2045
1727;2039
1751;2052
1741;2059
1762;2023
1744;2049
1737;2037
1755;2049
1763;2040
1755;2011
1733;2062
1748;2052
1766;2039
1769;2038
1759;2041
1740;2080
1753;2042
1747;2017
1756;2032
1753;2050
1731;2062
1766;2032
1741;2059
1755;2037
1760;2057
1757;2045
1770;2034
1737;2046
1750;2051
1754;2041
1753;2037
1750;2019
1729;2073
1757;2046
1738;2035
1764;2044
1768;2038
1719;2073
1759;2039
1752;2010
1752;2033
1756;2042
1718;2055
1765;2027
1740;2031
1752;2030
1768;2040
1724;2076
1768;2041
1744;2037
1753;2054
1753;2018
1740;2066
1750;2040
1752;2043
1760;2062
1778;2035
1751;2052
1740;2048
1745;2060
1752;2049
1756;2012
1757;2047
1766;2040
1761;2050
1724;2072
1774;2042
1750;2007
1755;2051
1758;2045
1739;2059
1770;2035
1754;2056
1759;2034
1757;2029
1741;2058
1735;2038
1761;2049
1751;2060
1773;2016
1743;2049
1734;2047
1749;2053
1714;2064
1768;2017
1744;2031
1770;2042
1758;2040
1736;2074
1754;2028
1751;2019
1761;2047
1760;2036
1730;2063
1755;2038
1751;2051
1763;2045
1783;2040
1737;2046
1720;2038
1770;2056
1736;2041
1770;2023
1754;2034
1756;2048
1763;2049
1743;2066
1772;2045
1746;2023
1744;2043
1757;2041
1737;2063
1755;2045
1747;2057
1758;2040
1756;2011
1734;2047
1730;2037
1746;2039
1747;2063
1776;2011
1745;2041
1735;2036
1753;2035
1742;2039
1762;2016
1752;2038
1750;2045
1759;2039
1736;2072
1759;2048
1761;2033
1771;2046
1749;2023
1725;2069
1744;2035
1739;2053
1758;2041
1784;2021
1746;2055
1728;2039
1744;2057
1748;2047
1778;2018
1744;2042
1755;2034
1749;2044
1727;2072
1759;2037
1769;2030
1759;2044
1756;2029
1729;2069
1747;2053
1754;2027
1754;2051
1751;2042
1735;2043
1735;2058
1752;2054
1766;2054
1770;2016
1737;2052
1738;2051
1738;2052
1724;2049
1768;2033
1749;2005
1759;2037
1753;2050
1733;2060
1762;2041
1759;2020
1756;2057
1755;2020
1723;2061
1747;2053
1751;2043
1755;2047
1780;2033
1741;2047
1743;2025
1746;2038
1750;2054
1765;2023
1758;2042
1752;2042
1749;2059
1737;2051
1752;2028
1747;2039
1756;2044
1747;2021
1728;2065
1750;2027
1750;2049
1774;2038
1759;2005
1737;2047
1721;2042
1758;2051
1753;2049
1765;2004
1744;2045
1745;2043
1744;2057
1737;2039
1773;2032
1748;2021
1748;2045
1766;2044
1739;2076
1756;2025
1754;2028
1760;2046
1751;2026
1728;2051
1733;2032
1749;2048
1762;2038
1770;2036
1731;2051
1737;2047
1758;2048
1726;2053
1772;2025
1765;2025
1763;2051
1743;2045
1726;2078
1754;2035
1750;2023
1757;2053
1756;2031
1733;2055
1760;2051
1742;2038
1753;2046
1759;2034
1743;2060
1729;2036
1750;2051
1749;2048
1768;2025
1746;2050
1738;2051
1758;2044
1734;2069
1785;2040
1752;2032
1753;2048
1762;2039
1737;2067
1757;2038
1756;2039
1780;2069
1768;2013
1737;2061
1736;2050
1766;2055
1779;2059
1796;2046
1758;2068
1753;2076
1778;2081
1773;2094
1822;2068
1807;2088
1830;2112
1837;2134
1854;2161
1868;2153
1875;2140
1914;2176
1910;2185
1909;2238
1942;2234
1972;2270
2004;2298
2102;2342
2146;2436
2206;2498
2310;2598
2366;2646
2428;2695
2472;2750
2518;2787
2546;2813
2514;2847
2571;2809
2554;2821
2632;2878
2734;2979
2858;3149
3056;3281
3241;3468
3472;3681
3741;3918
3973;4206
4158;4381
4408;4594
4628;4838
4902;5037
5110;5282
5362;5504
5718;5849
6168;6287
6779;6828
7455;7475
8065;8103
8371;8466
8399;8538
8368;8421
8601;8594
9391;9315
10397;10246
11273;11148
12142;11950
13082;12833
14223;13932
15711;15306
17463;16971
18991;18459
19982;19459
20361;19823
20379;19856
20359;19754
20214;19623
20205;19596
20594;19858
21253;20490
22613;21719
24521;23461
26839;25672
29751;28446
33230;31782
35707;34464
36253;35183
36220;35093
36537;35370
37365;36172
38759;37460
41435;39959
46478;44809
53008;51278
59326;57946
61677;60934
61146;60507
61101;60487
61772;61101
63487;62785
66122;65479
69878;69277
76132;75583
83934;84159
91475;92586
98405;100604
104064;107432
109285;113908
113524;119560
115595;123106
116164;123767
115955;122959
115732;122332
116234;123205
116720;125391
114966;127179
108012;125870
108132;128154
109700;130670
111129;133175
112007;134656
112379;135453
112248;135432
112163;135390
112304;135458
112859;136285
113706;137531
114808;139286
116007;141231
117119;143624
118224;146076
119298;148465
120313;150330
121168;152110
121825;153420
122361;154454
122820;155382
123269;156201
123610;156880
123991;157603
124359;158284
124713;159006
125018;159648
125284;160209
125529;160653
125746;161043
125929;161372
126070;161622
126208;161821
126326;162058
126433;162284
126547;162488
126645;162675
126741;162932
126846;163096
126990;163327
127082;163489
127192;163658
127274;163752
127340;163863
127420;163880
127451;163991
127523;164044
127558;164150
127566;164206
127638;164291
127668;164299
127725;164370
127799;164409
127831;164479
127905;164579
127972;164730
128013;164804
128039;164870
128052;164859
128100;164919
128076;164871
128111;164899
128151;164883
128184;164966
128209;165025
128263;165103
128234;165109
128273;165203
128301;165220
128358;165302
128353;165323
128389;165380
128386;165288
128404;165299
128431;165267
128403;165215
128323;165064
128284;164977
128262;164833
128277;164770
128230;164738
128273;164735
128265;164660
128270;164688
128246;164647
128278;164669
128244;164656
128240;164681
128254;164656
128270;164729
128243;164710
128269;164714
128270;164620
128299;164695
128310;164725
128349;164805
128322;164800
128338;164888
128370;164877
128387;164950
128361;164919
128397;164948
128383;164880
128385;164904
128386;164850
128397;164840
128363;164806
128363;164824
128353;164796
128385;164859
128365;164894
128447;164999
128494;165039
128566;165220
128629;165303
128673;165393
128652;165421
128663;165482
128684;165485
128697;165542
128683;165532
128701;165548
128682;165470
128714;165554
128752;165545
128803;165611
128788;165665
128836;165746
128866;165797
128896;165871
128868;165869
128927;165916
128937;165876
128964;165962
128966;165965
128999;166005
128968;166019
128981;166061
129003;166065
129035;166128
129049;166165
129082;166234
129096;166201
129142;166280
129128;166253
129163;166275
129111;166277
129101;166270
129076;166205
129067;166129
128968;165993
128941;165843
128919;165693
128893;165645
128896;165602
128932;165613
128916;165622
128922;165671
128951;165713
128957;165726
128912;165762
128991;165764
128980;165771
129022;165832
129024;165891
129068;165948
129056;166003
129098;166047
129113;166126
129179;166209
129183;166263
129233;166316
129254;166335
129264;166351
129283;166408
129249;166366
129235;166380
129223;166400
129230;166388
129295;166427
129295;166455
129336;166467
129353;166464
129348;166451
129351;166501
129378;166487
129365;166513
129343;166526
129342;166526
129360;166541
129336;166518
129360;166503
129365;166455
129368;166466
129371;166477
129364;166456
129343;166450
129326;166480
129320;166460
129336;166448
129311;166415
129311;166397
129292;166339
129282;166357
129289;166344
129292;166338
129252;166329
129224;166304
129208;166283
129222;166284
129195;166250
129207;166219
129215;166161
129186;166163
129203;166178
129183;166163
129138;166157
129103;166147
129082;166128
129103;166083
129051;165978
129017;165867
128954;165627
128901;165454
128859;165331
128846;165256
128819;165225
128771;165158
128758;165094
128738;165068
128704;165024
128712;165004
128731;165005
128707;165018
128721;165039
128721;165017
128687;165007
128665;165032
128668;165013
128648;164982
128629;165019
128634;164991
128659;164975
128678;165058
128737;165135
128792;165234
128831;165348
128810;165410
128841;165426
128851;165479
128845;165519
128879;165541
128913;165568
128962;165677
129010;165771
129037;165790
129040;165865
129041;165928
129062;165957
129056;165967
129017;165973
128974;165893
128925;165752
128865;165695
128855;165584
128817;165464
128771;165401
128771;165396
128777;165408
128791;165419
128779;165440
128812;165471
128849;165465
128838;165535
128826;165569
128807;165533
128740;165515
128709;165516
128697;165508
128728;165575
128741;165650
128779;165683
128787;165635
128802;165674
128821;165689
128804;165641
128772;165633
128730;165643
128741;165625
128705;165547
128636;165441
128594;165265
128541;165098
128514;164977
128467;164891
128475;164846
128451;164853
128444;164856
128454;164897
128454;164889
128426;164876
128390;164815
128384;164715
128385;164732
128366;164664
128359;164626
128322;164668
128305;164625
128329;164645
128359;164682
128342;164686
128330;164643
128331;164595
128322;164603
128347;164659
128358;164627
128338;164618
128288;164591
128262;164556
128252;164540
128211;164520
128209;164479
128225;164455
128206;164488
128221;164493
128230;164493
128185;164484
128200;164511
128219;164531
128230;164549
128220;164614
128260;164653
128310;164672
128299;164700
128307;164709
128333;164727
128351;164773
128373;164904
128459;165058
128503;165191
128520;165311
128592;165362
128617;165431
128661;165531
128711;165607
128741;165642
128719;165651
128718;165696
128716;165698
128691;165674
128684;165687
128697;165700
128758;165716
128761;165782
128804;165828
128829;165838
128812;165858
128782;165841
128762;165712
128664;165501
128588;165305
128563;165157
128555;165074
128533;165052
128549;165018
128547;164978
128527;164982
128526;165015
128528;165016
128494;165021
128474;165026
128469;164991
128508;165016
128515;165057
128552;165092
128585;165130
128603;165163
128613;165240
128634;165309
128644;165369
128658;165480
128701;165528
128768;165645
128770;165663
128786;165706
128807;165695
128794;165681
128781;165710
128780;165717
128766;165673
128759;165715
128751;165663
128796;165722
128783;165726
128818;165750
128820;165715
128791;165745
128818;165802
128834;165815
128829;165803
128804;165874
128797;165841
128847;165881
128821;165848
128848;165868
128860;165808
128835;165832
128858;165865
128862;165896
128819;165896
128817;165909
128826;165894
128852;165918
128857;165907
128854;165945
128907;165933
128901;165956
128906;166014
128914;166061
128901;166040
128872;166075
128858;166022
128896;166049
128882;166004
128879;165966
128842;165770
128748;165576
128667;165360
128612;165246
128574;165117
128573;165116
128560;165077
128615;165108
128593;165100
128646;165170
128649;165111
128612;165075
128607;165086
128603;165116
128556;165055
128543;165075
128532;165029
128572;165071
128573;165057
128596;165123
128618;165122
128647;165179
128671;165277
128741;165394
128710;165418
128737;165521
128730;165530
128806;165644
128803;165669
128841;165732
128891;165763
128904;165822
128937;165864
128954;165921
128915;165908
128918;165982
128918;165964
128980;166030
128965;166033
129014;166086
129022;166045
129006;166080
128993;166058
128982;166062
128927;166008
128905;166048
128881;165988
128939;166053
128944;166062
128989;166141
129024;166130
129021;166169
128994;166181
129013;166214
128989;166200
128999;166279
128973;166258
129032;166308
129019;166288
129059;166331
129046;166275
129033;166311
129016;166305
129026;166357
129010;166332
128999;166385
128988;166344
129039;166369
128988;166302
128960;166200
128909;165988
128814;165708
128696;165443
128680;165332
128634;165195
128595;165190
128571;165111
128604;165096
128561;165061
128573;165029
128581;165006
128584;165010
128596;165063
128603;165081
128582;165057
128545;165053
128520;165011
128567;165022
128536;165028
128583;165020
128589;165035
128599;165052
128591;165097
128601;165142
128584;165147
128581;165200
128585;165178
128597;165190
128601;165181
128601;165158
128598;165143
128590;165112
128566;165133
128581;165134
128590;165172
128585;165224
128586;165232
128673;165309
128650;165326
128685;165365
128692;165356
128702;165355
128704;165420
128717;165451
128730;165532
128735;165633
128770;165682
128837;165752
128833;165781
128857;165850
128869;165824
128849;165806
128868;165862
128886;165876
128859;165903
128851;165937
128890;165936
128905;165976
128872;165988
128890;165985
128873;165961
128877;165982
128904;166018
128889;166017
128894;166033
128854;166065
128867;166018
128842;165963
128776;165771
128710;165554
128629;165282
128573;165124
128529;165070
128531;164997
128492;164956
128458;164946
128484;164950
128475;164937
128474;164927
128500;164938
128493;164890
128487;164856
128482;164886
128467;164887
128481;164892
128462;164917
128463;164871
128490;164857
128470;164866
128464;164926
128512;164945
128508;164979
128493;164986
128521;165002
128537;164977
128495;164978
128480;164998
128467;165026
128516;165010
128504;164997
128532;164997
128548;164976
128521;164997
128461;165016
128475;164978
128511;164955
128517;164998
128545;165032
128527;165036
128519;165075
128481;165071
128510;165061
128542;165034
128510;165042
128533;165103
128531;165121
128518;165115
128519;165139
128545;165136
128568;165081
128514;165099
128483;165097
128497;165127
128498;165121
128519;165147
128542;165180
128566;165181
128572;165243
128574;165291
128549;165288
128593;165294
128593;165301
128584;165252
128570;165181
128497;165090
128428;165026
128416;164906
128430;164791
128395;164746
128388;164727
128385;164673
128364;164655
128332;164607
128345;164575
128354;164551
128345;164499
128322;164536
128316;164556
128328;164580
128345;164550
128343;164535
128355;164516
128320;164527
128294;164508
128301;164523
128320;164541
128335;164562
128375;164603
128394;164636
128381;164638
128354;164672
128321;164644
128345;164583
128353;164586
128343;164583
128349;164590
128354;164583
128315;164622
128357;164621
128391;164606
128394;164634
128430;164710
128416;164734
128406;164748
128420;164734
128432;164778
128448;164734
128427;164755
128380;164737
128371;164732
128387;164722
128375;164725
128386;164700
128399;164697
128389;164721
128359;164781
128371;164769
128392;164752
128399;164778
128398;164779
128398;164777
128394;164797
128375;164820
128412;164854
128432;164821
128444;164826
128444;164909
128440;164928
128437;164921
128431;164895
128402;164835
128409;164694
128344;164603
128291;164577
128285;164474
128264;164427
128248;164377
128266;164345
128271;164308
128238;164303
128222;164309
128231;164292
128235;164266
128237;164253
128212;164239
128222;164203
128202;164202
128179;164210
128189;164194
128204;164151
128229;164199
128244;164249
128268;164282
128268;164329
128285;164367
128292;164383
128320;164357
128317;164364
128322;164428
128315;164450
128315;164430
128289;164428
128303;164406
128319;164356
128314;164382
128299;164404
128315;164441
128318;164447
128297;164463
128336;164455
128339;164435
128314;164461
128269;164484
128296;164481
128329;164521
128332;164525
128370;164563
128376;164567
128359;164627
128373;164664
128382;164681
128406;164654
128412;164707
128406;164706
128424;164762
128437;164769
128407;164799
128414;164769
128430;164733
128423;164710
128419;164745
128426;164745
128395;164761
128402;164755
128443;164826
128479;164801
128483;164884
128442;164909
128481;164966
128499;164960
128494;164964
128480;164906
128465;164864
128407;164753
128339;164698
128288;164539
128302;164421
128259;164318
128260;164253
128233;164178
128208;164154
128161;164124
128142;164082
128150;163991
128148;164018
128138;163978
128136;163983
128114;163941
128104;163972
128106;163924
128123;163899
128129;163906
128157;163961
128137;163925
128130;163969
128098;163946
128147;163987
128168;163946
128157;164022
128149;164057
128211;164139
128186;164129
128200;164152
128202;164121
128235;164148
128193;164137
128175;164164
128139;164112
128184;164134
128177;164122
128189;164153
128190;164118
128184;164162
128165;164192
128186;164218
128216;164169
128223;164253
128233;164256
128247;164304
128218;164284
128222;164330
128233;164333
128274;164340
128268;164318
128292;164421
128284;164434
128292;164498
128289;164489
128318;164523
128344;164473
128348;164537
128318;164580
128360;164648
128375;164654
128396;164691
128393;164700
128422;164756
128398;164756
128383;164817
128371;164793
128421;164816
128403;164807
128457;164867
128470;164867
128486;164935
128441;164975
128473;165005
128479;164950
128487;164986
128484;164997
128514;165034
128485;165024
128476;165067
128480;165037
128518;165038
128481;164986
128488;164952
128380;164747
128332;164581
128231;164403
128234;164297
128246;164159
128192;164121
128160;164094
128189;164082
128161;164061
128165;164017
128141;163977
128149;163933
128100;163935
128073;163940
128067;163906
128115;163895
128106;163891
128114;163904
128130;163886
128124;163902
128086;163937
128113;163939
128126;163930
128169;163949
128152;164022
128176;164045
128175;164078
128174;164092
128203;164115
128235;164092
128213;164099
128225;164163
128215;164178
128224;164182
128200;164194
128236;164202
128252;164180
128235;164194
128221;164240
128263;164277
128260;164312
128276;164317
128285;164379
128324;164378
128314;164428
128287;164478
128287;164481
128313;164517
128309;164500
128335;164525
128362;164541
128336;164601
128333;164626
128333;164626
128375;164614
128388;164659
128392;164684
128384;164700
128383;164698
128388;164711
128408;164712
128426;164726
128398;164723
128418;164778
128426;164787
128400;164815
128416;164820
128426;164842
128466;164821
128460;164851
128439;164919
128448;164956
128486;164983
128492;165003
128511;165017
128513;165023
128506;165044
128484;165089
128493;165088
128528;165068
128546;165093
128548;165122
128537;165152
128521;165164
128508;165144
128489;165106
128483;164985
128416;164836
128349;164660
128278;164475
128232;164310
128184;164240
128146;164122
128194;164056
128168;164016
128161;164047
128149;164032
128149;164025
128130;164010
128145;164001
128163;163952
128134;163973
128096;163974
128110;163962
128099;163943
128110;163931
128114;163920
128127;163887
128123;163935
128088;163962
128085;163954
128123;163958
128124;163979
128141;163999
128153;164004
128132;164054
128133;164083
128132;164053
128145;164018
128144;164052
128157;164064
128154;164079
128167;164125
128145;164153
128194;164118
128191;164094
128184;164092
128177;164146
128169;164149
128188;164198
128170;164188
128203;164212
128254;164183
128213;164243
128172;164268
128214;164260
128210;164295
128225;164297
128225;164295
128250;164309
128240;164351
128217;164390
128217;164396
128265;164405
128266;164420
128280;164424
128267;164414
128261;164414
128233;164429
128230;164393
128274;164366
128262;164387
128279;164414
128262;164424
128256;164418
128242;164428
128241;164408
128251;164364
128246;164357
128259;164415
128247;164440
128246;164432
128229;164427
128238;164421
128277;164415
128259;164410
128238;164449
128250;164444
128239;164405
128208;164412
128196;164329
128172;164217
128131;164139
128064;164061
128046;163991
128040;163885
128010;163792
128002;163730
127987;163686
127963;163647
127916;163642
127927;163589
127933;163553
127938;163519
127945;163534
127923;163553
127933;163529
127899;163503
127920;163476
127937;163423
127898;163468
127876;163485
127882;163498
127895;163490
127907;163491
127923;163519
127956;163500
127924;163517
127890;163524
127887;163516
127899;163449
127889;163448
127914;163474
127898;163479
127891;163482
127861;163470
127900;163449
127912;163430
127901;163449
127892;163480
127892;163480
127879;163488
127888;163481
127898;163485
127921;163468
127901;163493
127888;163531
127881;163522
127909;163523
127917;163535
127948;163541
127931;163534
127907;163564
127863;163554
127896;163559
127916;163516
127915;163504
127910;163546
127900;163558
127889;163557
127901;163548
127912;163542
127935;163525
127909;163523
127889;163583
127895;163566
127930;163567
127927;163583
127933;163614
127929;163585
127910;163629
127890;163644
127902;163627
127926;163602
127933;163600
127941;163647
127933;163674
127930;163626
127916;163643
127925;163645
127965;163641
127929;163655
127895;163696
127943;163684
127954;163720
127939;163681
127956;163686
127933;163615
127884;163571
127831;163519
127799;163408
127804;163284
127781;163216
127756;163169
127727;163128
127707;163048
127676;163008
127675;162941
127681;162884
127644;162801
127629;162834
127631;162801
127629;162789
127599;162742
127606;162731
127606;162670
127590;162687
127557;162674
127559;162661
127573;162613
127586;162629
127571;162639
127593;162684
127567;162664
127542;162728
127574;162668
127590;162653
127580;162629
127570;162687
127561;162682
127528;162705
127558;162647
127562;162672
127579;162598
127548;162640
127510;162617
127503;162641
127523;162610
127528;162629
127534;162604
127545;162634
127540;162636
127527;162702
127523;162682
127559;162677
127554;162679
127570;162749
127558;162721
127589;162785
127539;162768
127571;162782
127578;162738
127595;162759
127581;162775
127591;162837
127574;162816
127584;162869
127592;162818
127641;162849
127589;162848
127579;162910
127566;162877
127622;162897
127608;162902
127655;162926
127639;162889
127623;162955
127593;162932
127620;162964
127646;162906
127642;162946
127645;162962
127639;163024
127624;162992
127631;163040
127655;163006
127683;163031
127650;163031
127638;163081
127670;163081
127685;163119
127666;163075
127701;163140
127677;163070
127658;163060
127616;163017
127588;162958
127572;162827
127556;162757
127515;162657
127500;162599
127446;162500
127408;162474
127373;162367
127391;162313
127372;162250
127370;162283
127351;162222
127338;162232
127297;162164
127336;162164
127316;162107
127304;162103
127277;162109
127287;162122
127314;162104
127333;162125
127343;162132
127364;162144
127314;162180
127325;162221
127308;162224
127352;162189
127341;162227
127367;162258
127371;162292
127369;162308
127331;162285
127370;162288
127365;162270
127378;162247
127348;162295
127371;162302
127353;162316
127356;162314
127374;162311
127411;162311
127394;162352
127379;162407
127381;162429
127430;162443
127435;162466
127468;162513
127462;162514
127465;162549
127425;162570
127472;162582
127485;162571
127501;162605
127514;162694
127541;162719
127542;162769
127532;162766
127552;162781
127576;162783
127556;162791
127529;162841
127555;162866
127580;162882
127587;162900
127594;162903
127635;162923
127592;162940
127557;162975
127543;162968
127595;162914
127606;162930
127605;163000
127623;163010
127605;163041
127599;163065
127637;163060
127650;163038
127616;163042
127619;163080
127628;163086
127598;163080
127599;163062
127608;163063
127614;163004
127562;162978
127534;162935
127500;162841
127493;162750
127455;162683
127454;162610
127456;162536
127398;162504
127387;162489
127384;162443
127397;162387
127416;162382
127407;162402
127392;162425
127393;162409
127381;162409
127403;162397
127422;162318
127376;162362
127349;162355
127362;162363
127371;162377
127388;162364
127414;162398
127428;162408
127407;162463
127408;162522
127414;162510
127449;162502
127462;162544
127455;162567
127462;162570
127440;162581
127418;162565
127420;162551
127454;162518
127447;162522
127452;162578
127445;162575
127438;162600
127436;162599
127472;162615
127465;162617
127473;162656
127453;162682
127465;162704
127497;162737
127491;162740
127536;162755
127535;162759
127519;162791
127506;162833
127524;162830
127551;162846
127553;162842
127565;162919
127588;162950
127583;163002
127580;163022
127604;163007
127643;163006
127611;163056
127595;163077
127624;163115
127633;163128
127628;163115
127657;163120
127660;163131
127643;163164
127634;163169
127621;163178
127668;163177
127666;163227
127679;163246
127673;163271
127696;163266
127662;163278
127683;163267
127687;163204
127666;163169
127666;163162
127608;163090
127582;163022
127544;162935
127549;162878
127554;162784
127528;162752
127477;162731
127477;162699
127494;162709
127470;162671
127498;162664
127506;162667
127479;162677
127457;162701
127468;162680
127496;162628
127487;162620
127500;162663
127469;162662
127470;162667
127443;162668
127482;162654
127498;162652
127484;162678
127485;162722
127482;162725
127493;162761
127492;162767
127486;162766
127547;162740
127519;162800
127479;162814
127469;162799
127514;162754
127502;162775
127504;162787
127529;162800
127539;162822
127508;162867
127546;162866
127571;162870
127574;162903
127596;162965
127611;163002
127613;163033
127596;163033
127626;163067
127661;163050
127635;163080
127598;163092
127598;163130
127634;163112
127640;163138
127656;163158
127668;163161
127658;163184
127633;163209
127651;163217
127667;163189
127669;163185
127657;163248
127669;163240
127653;163260
127623;163244
127662;163258
127697;163224
127696;163289
127676;163332
127715;163348
127708;163382
127707;163361
127717;163338
127696;163293
127652;163244
127594;163184
127573;163094
127577;163004
127581;162938
127560;162921
127542;162883
127548;162880
127517;162855
127527;162835
127532;162768
127527;162767
127533;162776
127540;162805
127530;162781
127511;162762
127513;162763
127530;162753
127523;162750
127507;162808
127492;162775
127521;162803
127526;162809
127554;162837
127561;162820
127545;162858
127514;162887
127530;162864
127545;162799
127539;162834
127542;162875
127549;162896
127540;162885
127535;162886
127545;162864
127568;162856
127541;162855
127528;162932
127560;162927
127577;162960
127584;162963
127621;163005
127616;162976
127607;163062
127600;163079
127612;163101
127621;163035
127631;163107
127640;163098
127644;163173
127630;163171
127660;163217
127675;163230
127712;163231
127685;163202
127703;163312
127684;163293
127708;163310
127684;163306
127709;163334
127743;163291
127723;163363
127700;163356
127701;163414
127733;163391
127754;163427
127753;163432
127776;163492
127778;163525
127774;163575
127776;163560
127819;163575
127797;163503
127765;163522
127715;163419
127705;163332
127652;163240
127659;163177
127631;163026
127621;163022
127558;162942
127563;162938
127540;162871
127563;162836
127545;162762
127539;162752
127505;162726
127485;162756
127442;162681
127498;162657
127475;162648
127488;162677
127463;162640
127485;162668
127439;162666
127477;162672
127486;162630
127515;162687
127491;162689
127499;162744
127484;162741
127503;162765
127526;162762
127553;162778
127532;162796
127517;162844
127496;162808
127533;162817
127515;162796
127543;162830
127546;162795
127551;162820
127500;162862
127529;162873
127556;162831
127566;162875
127561;162892
127575;162919
127550;162906
127582;162966
127569;162931
127629;162951
127573;162978
127552;163018
127570;163033
127615;163064
127600;163055
127640;163087
127635;163069
127640;163117
127611;163148
127634;163154
127640;163127
127664;163159
127662;163190
127666;163221
127670;163237
127645;163248
127651;163232
127690;163224
127669;163233
127680;163294
127701;163335
127712;163362
127707;163338
127735;163392
127744;163372
127735;163372
127672;163377
127654;163274
127664;163203
127651;163143
127613;163046
127618;162969
127561;162913
127533;162862
127487;162803
127512;162725
127498;162674
127496;162691
127491;162675
127468;162660
127436;162634
127444;162590
127477;162554
127466;162547
127445;162575
127478;162603
127469;162605
127455;162620
127479;162611
127487;162600
127492;162627
127457;162673
127463;162682
127489;162698
127489;162710
127515;162728
127519;162702
127502;162727
127472;162763
127469;162730
127504;162695
127509;162721
127524;162749
127521;162782
127516;162768
127488;162776
127520;162788
127542;162761
127519;162764
127538;162814
127532;162835
127531;162862
127515;162869
127553;162888
127593;162880
127569;162924
127545;162974
127553;162994
127609;163015
127602;163017
127614;163047
127632;163045
127644;163062
127605;163124
127611;163106
127635;163114
127662;163110
127672;163160
127652;163169
127654;163159
127624;163206
127670;163195
127705;163178
127683;163233
127660;163275
127678;163324
127717;163340
127735;163359
127756;163397
127798;163428
127778;163444
127761;163503
127731;163445
127738;163346
127709;163282
127675;163184
127655;163115
127604;163024
127557;162941
127567;162864
127558;162800
127528;162752
127525;162747
127500;162718
127488;162695
127485;162640
127485;162618
127481;162613
127452;162594
127439;162595
127428;162577
127459;162600
127452;162571
127457;162576
127457;162579
127461;162623
127435;162664
127451;162665
127499;162650
127500;162667
127501;162705
127502;162756
127503;162739
127495;162771
127519;162752
127540;162740
127513;162731
127510;162788
127503;162796
127538;162808
127534;162802
127534;162799
127545;162787
127527;162812
127504;162870
127526;162840
127572;162832
127557;162864
127572;162900
127579;162927
127571;162969
127562;162979
127600;162994
127610;163019
127615;162995
127617;163084
127643;163089
127624;163108
127618;163127
127651;163127
127674;163097
127654;163128
127623;163165
127617;163158
127662;163159
127667;163188
127692;163199
127681;163201
127668;163201
127632;163227
127661;163233
127677;163212
127697;163244
127752;163323
127721;163346
127744;163382
127723;163370
127742;163373
127752;163328
127716;163304
127655;163239
127655;163169
127628;163106
127601;163025
127593;162940
127579;162870
127536;162840
127509;162820
127502;162773
127515;162701
127507;162696
127497;162702
127496;162706
127477;162681
127446;162691
127481;162668
127508;162622
127491;162613
127473;162665
127484;162675
127511;162691
127495;162689
127525;162725
127563;162728
127539;162782
127518;162837
127536;162857
127568;162852
127563;162843
127571;162842
127578;162837
127558;162841
127528;162851
127542;162817
127561;162810
127558;162818
127573;162843
127561;162879
127563;162899
127542;162920
127583;162909
127588;162900
127582;162894
127555;162944
127599;162987
127612;163022
127623;163004
127637;163030
127657;163026
127620;163051
127583;163106
127605;163075
127633;163048
127644;163097
127650;163120
127643;163133
127654;163154
127630;163155
127654;163159
127675;163120
127677;163151
127685;163196
127672;163235
127678;163242
127684;163277
127702;163260
127729;163276
127722;163296
127703;163343
127713;163316
127727;163303
127719;163285
127693;163257
127678;163161
127632;163113
127576;163019
127572;162943
127561;162829
127548;162774
127527;162753
127509;162747
127510;162719
127488;162709
127524;162675
127554;162697
127518;162661
127490;162718
127503;162703
127526;162731
127510;162698
127533;162720
127555;162697
127547;162754
127514;162772
127528;162812
127569;162769
127569;162827
127588;162825
127598;162893
127590;162886
127587;162931
127594;162880
127620;162888
127600;162861
127601;162950
127617;162905
127606;162961
127601;162925
127636;162970
127659;162924
127632;163018
127613;163005
127603;163061
127665;163054
127685;163107
127698;163107
127726;163173
127706;163180
127690;163246
127711;163210
127727;163212
127729;163198
127750;163275
127744;163278
127757;163335
127747;163347
127798;163396
127790;163337
127782;163413
127799;163425
127813;163479
127809;163459
127833;163471
127842;163476
127858;163512
127834;163503
127811;163605
127821;163558
127874;163558
127869;163583
127897;163646
127886;163652
127910;163709
127877;163733
127938;163768
127939;163725
127945;163759
127905;163774
127907;163762
127870;163649
127839;163541
127792;163387
127800;163298
127729;163220
127691;163188
127668;163055
127683;163026
127655;162959
127688;162938
127664;162873
127633;162882
127591;162839
127595;162828
127599;162758
127624;162779
127605;162775
127626;162804
127591;162767
127582;162799
127607;162767
127660;162769
127630;162777
127599;162864
127629;162875
127680;162920
127667;162942
127704;162946
127703;162965
127698;162999
127676;163047
127681;163041
127701;163011
127733;162991
127718;163024
127722;163029
127697;163043
127677;163050
127717;163044
127737;163028
127717;163052
127715;163106
127726;163117
127760;163149
127711;163157
127784;163180
127773;163193
127781;163241
127786;163291
127770;163285
127797;163264
127818;163297
127809;163323
127823;163366
127808;163392
127797;163391
127820;163411
127866;163395
127835;163413
127860;163465
127877;163493
127869;163515
127861;163529
127908;163563
127895;163542
127890;163585
127864;163592
127869;163604
127906;163590
127937;163616
127924;163656
127944;163686
127949;163750
127945;163776
127972;163793
128021;163795
127992;163819
127978;163848
127973;163859
127952;163810
127919;163710
127910;163585
127866;163481
127815;163397
127759;163314
127730;163202
127756;163116
127737;163062
127712;163062
127710;163018
127692;162985
127683;162997
127692;162973
127716;162923
127685;162902
127679;162933
127688;162917
127662;162926
127664;162905
127667;162909
127690;162886
127681;162923
127653;162929
127642;162940
127699;162959
127731;162979
127754;163062
127738;163082
127739;163117
127737;163146
127742;163145
127764;163106
127759;163132
127767;163166
127777;163165
127779;163192
127758;163167
127782;163175
127799;163179
127793;163211
127781;163249
127768;163296
127831;163316
127854;163380
127879;163387
127892;163425
127896;163479
127886;163526
127906;163562
127946;163525
127955;163571
127967;163656
127987;163704
127983;163756
127976;163776
128021;163791
128046;163798
128026;163828
128050;163883
128040;163904
128062;163936
128076;163944
128068;163926
128082;163929
128078;163959
128035;163990
128038;163979
128066;163974
128105;164011
128111;164039
128127;164066
128095;164107
128102;164136
128093;164179
128145;164152
128167;164186
128164;164230
128163;164265
128170;164262
128129;164278
128127;164234
128127;164093
128052;163902
128003;163817
127970;163671
127928;163592
127874;163515
127879;163456
127894;163358
127866;163353
127818;163345
127827;163313
127840;163289
127819;163258
127817;163244
127842;163214
127815;163217
127787;163274
127775;163231
127819;163207
127814;163225
127838;163248
127822;163274
127836;163290
127812;163321
127841;163313
127842;163297
127857;163312
127852;163369
127863;163396
127872;163405
127850;163396
127862;163414
127914;163395
127863;163433
127834;163439
127845;163435
127886;163441
127880;163454
127884;163463
127911;163480
127891;163515
127868;163545
127912;163545
127930;163573
127958;163589
127938;163655
127968;163659
127964;163705
127961;163698
127989;163735
128026;163722
128012;163766
127976;163832
128008;163847
128048;163886
128037;163915
128068;163927
128076;163919
128053;163959
128058;163986
128064;164022
128090;164031
128117;164071
128124;164082
128130;164096
128112;164120
128106;164148
128109;164156
128156;164136
128168;164214
128193;164274
128197;164330
128198;164360
128201;164385
128200;164385
128236;164375
128227;164380
128241;164415
128206;164356
128139;164223
128061;164062
128034;163896
128028;163752
127975;163669
127944;163618
127930;163609
127931;163553
127908;163505
127930;163501
127937;163481
127908;163463
127876;163503
127866;163451
127906;163434
127894;163457
127920;163469
127912;163466
127902;163460
127888;163487
127893;163484
127931;163470
127927;163484
127936;163565
127967;163606
127955;163648
127946;163665
127990;163657
127999;163657
127985;163641
127963;163680
127961;163668
127975;163676
127994;163670
127999;163689
128010;163694
127992;163702
127975;163747
127996;163760
128026;163741
128044;163795
128047;163844
128073;163902
128063;163928
128063;163953
128100;163963
128102;163967
128103;163970
128129;164039
128127;164066
128137;164123
128125;164117
128158;164147
128185;164134
128179;164168
128129;164207
128165;164256
128173;164264
128184;164281
128194;164286
128227;164311
128209;164342
128190;164341
128202;164361
128249;164418
128245;164403
128293;164460
128268;164440
128260;164493
128227;164502
128227;164513
128271;164466
128291;164556
128319;164582
128334;164651
128342;164677
128317;164739
128323;164734
128360;164753
128349;164688
128324;164673
128251;164482
128181;164348
128096;164136
128094;164018
128074;163871
128041;163810
128025;163766
127993;163742
127976;163696
127971;163679
127977;163648
128011;163645
127969;163612
127963;163658
127954;163632
127970;163653
127963;163594
127990;163643
127980;163588
127959;163611
127937;163633
127944;163623
127972;163605
127992;163683
128003;163695
128015;163759
127999;163743
128015;163820
128023;163772
128066;163806
128039;163798
128076;163852
128074;163865
128059;163892
128028;163854
128063;163892
128091;163839
128083;163898
128074;163915
128101;163967
128082;163962
128105;164018
128101;163993
128152;164025
128121;164034
128124;164106
128149;164118
128186;164187
128179;164190
128211;164257
128222;164233
128234;164327
128186;164339
128193;164377
128235;164353
128254;164426
128268;164442
128301;164505
128265;164491
128263;164560
128258;164538
128323;164573
128297;164569
128353;164654
128347;164708
128370;164763
128358;164765
128407;164794
128419;164770
128418;164831
128405;164872
128434;164957
128435;164963
128468;165011
128452;165006
128490;165021
128481;165089
128483;165134
128487;165157
128528;165211
128501;165200
128531;165205
128513;165155
128473;165088
128376;164928
128276;164640
128224;164359
128174;164232
128155;164143
128128;164056
128098;164005
128079;163953
128049;163900
128088;163852
128055;163837
128089;163898
128071;163889
128074;163889
128035;163890
128080;163900
128091;163866
128078;163861
128057;163882
128086;163903
128068;163922
128078;163938
128106;163976
128150;163981
128125;164019
128134;164060
128139;164091
128152;164094
128151;164121
128187;164144
128196;164149
128189;164186
128152;164212
128154;164199
128191;164195
128204;164212
128204;164223
128201;164222
128209;164246
128169;164286
128190;164300
128230;164285
128238;164304
128254;164380
128254;164388
128253;164444
128233;164482
128287;164492
128328;164518
128322;164550
128318;164624
128337;164647
128340;164670
128319;164669
128348;164737
128389;164755
128385;164776
128373;164853
128403;164897
128414;164938
128418;164927
128440;164946
128463;164948
128437;164984
128424;165045
128432;165050
128465;165048
128478;165099
128499;165105
128515;165147
128489;165171
128488;165220
128515;165243
128546;165234
128559;165280
128574;165346
128582;165389
128582;165418
128576;165432
128599;165457
128648;165434
128631;165478
128632;165529
128624;165527
128592;165459
128509;165272
128443;165032
128360;164725
128285;164497
128211;164376
128200;164280
128180;164226
128152;164186
128171;164170
128203;164142
128184;164166
128129;164171
128130;164160
128164;164164
128177;164183
128212;164173
128214;164201
128205;164226
128169;164252
128163;164257
128224;164253
128220;164290
128260;164341
128261;164375
128261;164444
128277;164507
128289;164518
128309;164504
128327;164532
128344;164571
128348;164584
128317;164583
128306;164571
128317;164566
128345;164571
128341;164564
128322;164585
128313;164610
128348;164615
128328;164645
128362;164680
128418;164700
128377;164756
128358;164840
128401;164884
128435;164879
128438;164937
128453;164933
128486;164974
128460;165024
128450;165078
128466;165081
128491;165093
128516;165121
128513;165166
128513;165161
128507;165176
128484;165229
128511;165199
128530;165186
128544;165196
128554;165270
128538;165291
128537;165284
128511;165290
128564;165281
128580;165293
128574;165328
128591;165389
128591;165405
128613;165460
128611;165487
128647;165518
128682;165509
128661;165570
128634;165608
128643;165607
128672;165608
128640;165556
128621;165423
128542;165208
128406;164941
128318;164762
128268;164615
128273;164476
128267;164422
128264;164389
128244;164385
128256;164383
128240;164401
128231;164378
128268;164378
128259;164378
128265;164425
128267;164461
128274;164451
128277;164474
128292;164489
128319;164475
128311;164522
128314;164599
128368;164667
128374;164740
128394;164782
128419;164813
128439;164812
128418;164833
128376;164872
128408;164881
128452;164892
128445;164908
128460;164924
128460;164907
128444;164926
128426;164944
128439;164941
128461;164915
128457;164958
128482;164983
128484;165038
128505;165089
128476;165118
128521;165160
128565;165165
128550;165220
128558;165269
128573;165320
128579;165356
128571;165351
128600;165386
128619;165388
128615;165441
128619;165501
128654;165543
128666;165589
128660;165594
128682;165589
128690;165567
128673;165602
128637;165650
128655;165634
128690;165653
128681;165666
128695;165675
128702;165687
128683;165687
128666;165692
128665;165667
128678;165660
128725;165689
128737;165772
128748;165821
128751;165866
128741;165862
128747;165825
128726;165688
128648;165527
128564;165329
128471;165093
128415;164903
128371;164737
128356;164668
128345;164577
128318;164565
128292;164557
128305;164574
128327;164555
128327;164559
128349;164567
128329;164542
128318;164552
128295;164568
128268;164539
128318;164530
128334;164573
128365;164620
128369;164652
128364;164696
128358;164736
128393;164768
128416;164753
128425;164806
128444;164836
128448;164881
128450;164892
128426;164918
128446;164906
128473;164889
128450;164852
128444;164905
128455;164898
128470;164924
128450;164924
128499;164976
128522;164960
128498;165010
128455;165029
128476;165035
128475;165040
128488;165094
128520;165096
128519;165143
128520;165157
128471;165221
128456;165167
128496;165150
128496;165175
128535;165244
128539;165264
128539;165348
128546;165385
128570;165446
128592;165398
128586;165435
128586;165428
128589;165473
128579;165459
128555;165453
128576;165439
128617;165451
128587;165455
128552;165497
128564;165491
128602;165559
128594;165529
128620;165569
128599;165529
128594;165560
128536;165490
128481;165380
128427;165144
128331;164910
128261;164682
128237;164574
128193;164459
128162;164451
128170;164350
128170;164317
128160;164275
128174;164316
128156;164293
128140;164304
128105;164295
128145;164320
128150;164259
128155;164262
128138;164272
128161;164336
128139;164321
128153;164328
128168;164331
128214;164374
128186;164377
128184;164486
128207;164474
128234;164530
128214;164505
128225;164519
128209;164469
128219;164504
128170;164486
128175;164512
128198;164481
128223;164496
128210;164478
128243;164509
128204;164501
128192;164551
128193;164538
128256;164547
128251;164584
128283;164629
128285;164655
128297;164733
128280;164755
128321;164810
128328;164786
128343;164844
128358;164892
128371;164961
128378;164964
128355;165010
128370;164989
128420;165020
128386;164988
128415;165054
128403;165052
128413;165118
128393;165112
128441;165165
128456;165142
128448;165192
128434;165219
128443;165280
128464;165270
128491;165294
128506;165301
128527;165344
128486;165339
128482;165406
128456;165339
128468;165258
128414;165134
128345;164949
128262;164729
128213;164574
128144;164480
128141;164388
128109;164286
128124;164234
128123;164235
128122;164227
128096;164196
128086;164202
128090;164176
128119;164169
128117;164166
128102;164203
128111;164220
128112;164208
128095;164199
128122;164237
128141;164223
128148;164248
128139;164295
128156;164340
128155;164367
128163;164383
128175;164369
128215;164379
128166;164385
128137;164423
128134;164392
128183;164380
128180;164402
128207;164411
128196;164424
128181;164445
128174;164451
128181;164451
128204;164415
128230;164423
128232;164511
128240;164544
128253;164578
128232;164614
128270;164621
128309;164623
128296;164652
128300;164697
128306;164746
128299;164775
128310;164788
128349;164811
128361;164837
128329;164869
128320;164875
128323;164895
128376;164918
128389;164939
128387;164980
128425;164996
128403;165050
128385;165089
128409;165084
128426;165066
128423;165070
128441;165135
128436;165167
128446;165194
128446;165206
128446;165194
128449;165105
128377;164953
128281;164762
128237;164636
128215;164518
128179;164424
128187;164364
128194;164326
128163;164300
128109;164282
128110;164239
128134;164212
128133;164239
128132;164252
128151;164256
128142;164307
128133;164296
128146;164302
128165;164275
128175;164288
128193;164355
128199;164396
128190;164446
128191;164476
128227;164474
128253;164474
128231;164482
128204;164533
128230;164509
128220;164513
128190;164454
128203;164464
128215;164426
128207;164453
128200;164474
128199;164511
128220;164516
128238;164497
128254;164512
128249;164524
128240;164572
128227;164608
128247;164620
128280;164638
128298;164645
128299;164704
128328;164717
128317;164752
128287;164809
128317;164806
128343;164822
128349;164798
128366;164862
128345;164873
128344;164885
128337;164905
128362;164886
128373;164886
128376;164893
128389;164990
128394;165016
128391;165039
128400;165051
128427;165092
128447;165047
128439;165084
128433;165133
128416;165178
128431;165161
128424;165156
128398;165093
128375;164945
128288;164753
128215;164639
128172;164502
128174;164402
128147;164313
128131;164233
128109;164184
128085;164156
128039;164140
128031;164120
128065;164112
128091;164105
128078;164103
128095;164107
128076;164113
128043;164147
128034;164105
128068;164053
128062;164067
128075;164087
128057;164102
128067;164139
128045;164160
128054;164158
128083;164144
128075;164124
128099;164205
128086;164231
128095;164238
128084;164252
128102;164229
128134;164205
128114;164200
128102;164247
128096;164264
128099;164256
128106;164239
128121;164276
128165;164285
128150;164313
128143;164373
128161;164382
128163;164416
128173;164406
128184;164436
128204;164418
128190;164429
128170;164526
128187;164551
128243;164594
128256;164626
128289;164660
128291;164660
128270;164691
128252;164711
128238;164691
128261;164677
128264;164652
128251;164667
128253;164655
128262;164683
128246;164736
128263;164738
128283;164695
128270;164726
128303;164765
128284;164775
128287;164786
128243;164773
128286;164778
128293;164740
128261;164729
128257;164738
128243;164668
128179;164548
128128;164414
128125;164315
128106;164191
128061;164116
127994;164065
127972;164024
127997;163954
127978;163901
127981;163876
127984;163854
127964;163861
127944;163876
127949;163874
127987;163851
127977;163855
127964;163869
127973;163841
127959;163859
127917;163832
127945;163798
127979;163792
127948;163774
127941;163832
127959;163892
127982;163910
127975;163937
128014;163961
128023;163960
128010;163978
127982;163968
127970;163964
127993;163968
127987;163950
128001;163958
128017;163975
127994;163997
127979;164024
127981;164019
128026;163989
128015;164022
128046;164056
128039;164105
128065;164150
128042;164197
128077;164218
128102;164237
128112;164270
128138;164343
128156;164381
128165;164433
128145;164457
128191;164512
128228;164514
128236;164566
128214;164621
128232;164632
128220;164623
128219;164623
128238;164612
128254;164646
128232;164647
128231;164712
128236;164717
128272;164751
128297;164732
128290;164822
128307;164832
128319;164877
128291;164917
128313;164949
128361;164918
128340;164950
128342;164975
128322;164961
128293;164878
128215;164717
128161;164510
128135;164334
128048;164219
128035;164169
127995;164060
127991;164002
127970;163933
127973;163919
127965;163866
127966;163889
127925;163872
127948;163883
127964;163824
127952;163834
127965;163813
127939;163827
127939;163798
127921;163807
127918;163768
127934;163769
127943;163747
127948;163851
127961;163857
127978;163896
127957;163887
127984;163906
127999;163874
127967;163912
127947;163920
127952;163939
127986;163930
128001;163939
127996;163924
127998;163958
127987;163957
127986;163984
127965;163945
128010;163955
127996;163942
128019;164024
128025;164034
128026;164110
128022;164072
128055;164139
128086;164115
128074;164130
128069;164177
128097;164225
128100;164242
128105;164280
128118;164286
128155;164301
128128;164292
128098;164347
128097;164320
128113;164351
128104;164311
128137;164344
128137;164342
128143;164370
128098;164393
128112;164412
128135;164369
128128;164374
128144;164346
128156;164393
128133;164389
128121;164451
128136;164426
128181;164436
128172;164448
128183;164521
128178;164518
128192;164556
128136;164514
128166;164480
128150;164365
128131;164316
128068;164220
128053;164143
128005;164042
127973;163958
127941;163864
127958;163827
127927;163799
127903;163817
127881;163744
127940;163767
127909;163729
127929;163763
127944;163730
127918;163788
127874;163792
127919;163782
127922;163716
127936;163756
127926;163759
127950;163814
127930;163824
127940;163852
127957;163841
127988;163837
127947;163836
127932;163894
127907;163832
127934;163887
127922;163839
127945;163879
127942;163844
127941;163870
127915;163867
127914;163869
127925;163832
127935;163890
127960;163852
127940;163907
127935;163924
127943;163961
127946;163933
127975;163939
127986;163916
127979;163991
127970;164010
127992;164026
127968;164020
128011;164041
128011;164015
128015;164070
127965;164107
127998;164121
128024;164132
128024;164125
128032;164132
128043;164120
128016;164131
128014;164171
127976;164156
128026;164146
128020;164149
128047;164156
128022;164181
128036;164205
128012;164232
128056;164240
128061;164232
128075;164288
128084;164356
128119;164356
128089;164417
128094;164411
128104;164391
128127;164383
128107;164345
128095;164370
128056;164319
128052;164261
127995;164146
127992;164056
127964;163908
127915;163850
127845;163791
127832;163722
127849;163649
127831;163610
127824;163558
127817;163541
127794;163530
127772;163523
127764;163482
127780;163432
127775;163415
127756;163446
127767;163438
127749;163440
127750;163454
127757;163463
127802;163434
127794;163476
127788;163546
127806;163577
127816;163585
127844;163627
127847;163621
127851;163613
127834;163623
127791;163645
127768;163623
127802;163571
127809;163567
127820;163605
127817;163629
127807;163635
127796;163655
127830;163642
127836;163634
127840;163669
127814;163665
127832;163718
127849;163737
127874;163765
127901;163802
127902;163823
127905;163877
127905;163914
127884;163907
127925;163897
127915;163917
127940;163930
127942;163961
127942;164006
127948;164016
127941;164044
127985;164007
127967;164016
127957;164053
127964;164048
127945;164042
127915;164006
127927;164008
127967;164004
127932;164026
127918;164067
127937;164088
127971;164113
127969;164125
128005;164168
128005;164192
128014;164241
128002;164303
127999;164326
128072;164320
128073;164391
128080;164409
128084;164446
128071;164414
128019;164333
127949;164170
127939;164026
127871;163903
127853;163826
127813;163713
127769;163643
127714;163529
127715;163450
127722;163343
127662;163304
127602;163281
127601;163259
127634;163227
127592;163186
127604;163137
127570;163111
127549;163086
127512;163095
127509;163016
127542;162994
127532;162996
127529;163044
127544;163062
127546;163086
127495;163087
127540;163075
127548;163063
127526;163055
127507;163089
127516;163101
127523;163100
127535;163102
127543;163103
127538;163066
127534;163088
127488;163106
127487;163074
127494;163039
127491;163036
127485;163030
127503;163070
127505;163092
127472;163091
127534;163129
127558;163114
127549;163140
127552;163217
127561;163253
127574;163279
127571;163311
127603;163302
127618;163329
127617;163362
127604;163433
127633;163457
127680;163520
127689;163517
127709;163574
127700;163583
127699;163592
127659;163580
127665;163569
127695;163515
127687;163528
127652;163546
127659;163569
127662;163589
127661;163579
127682;163603
127725;163632
127698;163659
127719;163712
127711;163762
127777;163807
127792;163820
127790;163851
127784;163837
127747;163818
127680;163731
127672;163631
127650;163495
127637;163416
127610;163384
127584;163297
127558;163241
127522;163178
127531;163122
127537;163063
127494;163031
127468;163029
127459;163024
127464;163020
127457;162990
127477;162985
127485;162975
127475;163013
127459;163074
127479;163058
127523;163061
127529;163094
127537;163102
127545;163142
127550;163168
127545;163188
127563;163213
127571;163198
127569;163175
127579;163255
127592;163272
127580;163271
127587;163269
127601;163271
127627;163261
127610;163289
127567;163322
127582;163341
127636;163366
127648;163394
127684;163430
127717;163499
127736;163578
127737;163655
127711;163627
127733;163596
127719;163602
127733;163646
127740;163700
127734;163706
127722;163732
127763;163764
127808;163765
127768;163781
127725;163786
127725;163788
127754;163768
127754;163775
127754;163774
127774;163777
127748;163796
127729;163834
127726;163805
127757;163780
127773;163806
127773;163847
127767;163885
127784;163898
127771;163923
127797;163945
127829;163922
127797;163940
127746;163960
127771;163939
127750;163894
127743;163797
127698;163705
127665;163576
127615;163480
127545;163407
127532;163313
127534;163210
127496;163138
127463;163097
127451;163044
127431;163028
127418;162988
127424;162971
127446;162930
127421;162921
127402;162955
127416;162934
127417;162948
127414;162934
127448;162949
127477;162939
127436;162995
127432;163012
127434;163056
127481;163047
127480;163092
127486;163090
127509;163108
127486;163127
127469;163158
127480;163136
127513;163109
127512;163130
127549;163229
127526;163190
127531;163249
127504;163244
127557;163256
127589;163233
127583;163322
127586;163365
127604;163437
127633;163473
127664;163511
127663;163536
127675;163569
127676;163566
127644;163626
127643;163582
127680;163577
127680;163583
127700;163646
127689;163656
127692;163684
127693;163695
127719;163726
127745;163712
127754;163748
127749;163802
127773;163874
127775;163884
127779;163878
127789;163891
127830;163909
127778;163895
127760;163969
127766;163950
127814;164010
127815;164005
127877;164095
127868;164095
127877;164163
127867;164196
127848;164175
127846;164037
127798;163919
127718;163745
127678;163660
127637;163535
127599;163487
127608;163374
127615;163311
127568;163244
127544;163281
127549;163214
127538;163229
127513;163170
127533;163165
127541;163128
127513;163147
127492;163140
127487;163168
127525;163139
127558;163167
127547;163158
127567;163216
127542;163227
127561;163298
127557;163264
127592;163290
127578;163288
127601;163361
127593;163356
127598;163395
127583;163345
127595;163382
127605;163324
127591;163368
127574;163344
127609;163407
127594;163381
127610;163404
127628;163397
127664;163438
127640;163443
127633;163558
127649;163527
127691;163564
127700;163596
127738;163680
127735;163686
127747;163758
127728;163738
127755;163776
127758;163730
127763;163762
127742;163788
127756;163834
127736;163810
127772;163840
127782;163821
127801;163833
127745;163836
127727;163865
127752;163834
127787;163854
127796;163892
127823;163947
127837;163983
127848;164032
127807;164018
127844;164048
127821;163999
127853;163996
127820;164035
127861;164066
127842;164038
127808;164002
127792;163896
127795;163763
127702;163663
127643;163589
127604;163490
127627;163423
127575;163364
127621;163324
127588;163256
127592;163260
127556;163239
127532;163209
127545;163143
127552;163139
127526;163145
127537;163136
127513;163124
127497;163130
127506;163108
127552;163080
127519;163080
127534;163147
127514;163166
127558;163194
127549;163182
127568;163216
127566;163190
127546;163222
127508;163249
127523;163229
127530;163218
127556;163208
127546;163236
127571;163249
127545;163251
127546;163278
127558;163274
127593;163273
127588;163297
127607;163337
127613;163373
127612;163393
127605;163385
127632;163412
127663;163418
127640;163437
127616;163495
127603;163507
127652;163526
127670;163557
127686;163567
127706;163618
127710;163645
127706;163696
127720;163727
127758;163726
127753;163735
127771;163804
127767;163801
127754;163820
127737;163785
127765;163802
127807;163800
127769;163845
127752;163882
127791;163914
127818;163940
127812;163937
127823;163934
127809;163899
127760;163853
127707;163782
127653;163646
127649;163518
127614;163439
127599;163334
127554;163248
127541;163204
127485;163132
127495;163094
127504;163019
127477;163005
127467;163037
127477;163015
127489;163039
127453;162991
127490;162988
127507;162962
127459;162959
127427;162970
127453;162983
127496;162998
127499;163029
127530;163058
127533;163072
127516;163137
127481;163150
127496;163127
127529;163115
127518;163083
127510;163132
127500;163116
127502;163114
127470;163119
127502;163087
127520;163089
127499;163081
127472;163126
127524;163119
127515;163140
127529;163135
127511;163182
127538;163159
127528;163183
127510;163219
127526;163233
127547;163250
127556;163238
127565;163262
127567;163310
127572;163334
127556;163369
127596;163378
127617;163353
127613;163382
127638;163454
127615;163475
127605;163448
127588;163431
127603;163409
127612;163388
127606;163423
127562;163438
127584;163473
127610;163465
127608;163491
127601;163486
127635;163517
127620;163562
127594;163617
127631;163610
127660;163614
127654;163618
127650;163616
127623;163546
127582;163459
127515;163341
127499;163194
127468;163091
127451;162984
127412;162936
127403;162885
127374;162818
127358;162744
127349;162731
127391;162669
127335;162645
127294;162665
127295;162638
127323;162637
127306;162617
127322;162623
127317;162580
127294;162582
127264;162574
127258;162578
127278;162512
127317;162559
127325;162620
127335;162661
127340;162704
127319;162746
127338;162715
127372;162717
127356;162679
127321;162728
127339;162751
127355;162764
127356;162781
127378;162801
127408;162811
127401;162851
127381;162866
127390;162872
127405;162884
127435;162908
127429;162930
127454;162952
127433;163014
127423;163050
127443;163034
127493;163023
127465;163055
127497;163108
127492;163132
127494;163160
127498;163164
127521;163197
127541;163199
127513;163212
127496;163250
127520;163268
127547;163283
127568;163281
127569;163301
127567;163307
127561;163349
127542;163393
127546;163401
127584;163370
127586;163421
127596;163437
127601;163472
127603;163483
127588;163485
127625;163546
127644;163541
127668;163563
127677;163650
127669;163662
127664;163654
127636;163576
127618;163477
127585;163332
127511;163244
127474;163154
127439;163052
127431;162926
127392;162874
127376;162803
127359;162735
127334;162708
127307;162665
127309;162626
127314;162575
127305;162518
127329;162575
127297;162566
127288;162550
127278;162543
127278;162524
127309;162482
127291;162477
127260;162513
127281;162556
127299;162566
127327;162592
127335;162620
127345;162628
127339;162641
127340;162704
127319;162694
127356;162678
127370;162691
127371;162737
127374;162761
127367;162760
127342;162755
127364;162755
127390;162732
127380;162736
127384;162823
127414;162859
127421;162907
127411;162911
127447;162939
127470;162949
127468;162977
127427;163030
127427;163023
127469;163054
127495;163055
127504;163105
127525;163109
127499;163148
127468;163191
127474;163163
127505;163131
127523;163161
127510;163178
127525;163219
127521;163235
127521;163289
127569;163319
127618;163349
127612;163360
127589;163440
127587;163430
127587;163468
127599;163440
127624;163483
127654;163455
127627;163519
127593;163545
127615;163577
127667;163557
127675;163606
127685;163581
127663;163609
127655;163605
127649;163656
127664;163653
127686;163645
127654;163584
127638;163553
127566;163411
127529;163305
127468;163146
127478;163075
127462;162961
127424;162901
127376;162846
127381;162807
127371;162743
127346;162697
127350;162654
127345;162604
127300;162606
127292;162637
127267;162591
127314;162537
127306;162553
127315;162574
127310;162516
127311;162565
127260;162550
127285;162602
127326;162548
127325;162595
127348;162637
127362;162695
127360;162713
127368;162745
127379;162745
127401;162751
127382;162740
127372;162796
127373;162774
127400;162800
127375;162773
127399;162784
127385;162760
127391;162809
127374;162836
127393;162859
127425;162806
127435;162880
127418;162882
127449;162954
127441;162966
127444;163032
127470;163009
127495;163047
127484;163044
127533;163123
127512;163126
127507;163167
127493;163126
127522;163181
127545;163139
127537;163210
127491;163210
127540;163264
127537;163269
127568;163272
127577;163265
127588;163311
127563;163310
127565;163408
127565;163365
127623;163389
127617;163379
127636;163479
127614;163472
127643;163518
127631;163510
127660;163558
127679;163560
127691;163612
127661;163641
127716;163724
127691;163706
127719;163742
127731;163738
127754;163776
127753;163803
127747;163888
127717;163841
127738;163780
127649;163559
127616;163438
127570;163294
127531;163215
127475;163100
127465;163023
127444;162919
127468;162884
127419;162861
127410;162856
127387;162817
127382;162819
127373;162783
127417;162760
127384;162734
127377;162783
127388;162788
127414;162802
127378;162825
127418;162813
127418;162802
127412;162838
127361;162860
127382;162876
127403;162866
127424;162881
127427;162915
127459;162913
127412;162918
127416;162951
127410;162920
127436;162892
127437;162885
127450;162944
127438;162954
127448;162976
127441;163019
127463;163010
127497;162996
127498;163028
127483;163106
127524;163151
127521;163191
127545;163216
127553;163207
127569;163235
127552;163258
127540;163289
127521;163295
127566;163313
127581;163331
127610;163379
127611;163457
127664;163496
127621;163559
127677;163580
127697;163563
127690;163586
127711;163653
127717;163683
127711;163746
127715;163735
127742;163751
127777;163754
127763;163771
127694;163788
127723;163804
127752;163807
127727;163797
127754;163829
127789;163851
127804;163921
127772;163957
127780;163993
127825;163987
127841;164036
127834;164090
127839;164098
127829;164111
127811;164102
127827;164086
127827;163998
127754;163838
127673;163655
127619;163511
127575;163365
127501;163219
127512;163142
127516;163021
127454;163004
127433;162995
127429;162984
127452;162975
127445;162962
127451;162913
127456;162902
127410;162879
127400;162902
127393;162893
127433;162855
127459;162894
127456;162947
127471;162959
127469;162984
127481;163030
127511;163042
127515;163039
127508;163058
127513;163124
127533;163141
127532;163166
127533;163160
127556;163165
127551;163157
127547;163158
127527;163209
127521;163194
127570;163227
127555;163254
127607;163251
127628;163269
127608;163333
127595;163387
127608;163389
127643;163377
127656;163451
127677;163491
127688;163546
127707;163594
127681;163637
127720;163663
127752;163663
127756;163707
127776;163791
127786;163829
127785;163863
127778;163856
127810;163908
127819;163897
127831;163931
127807;163963
127829;164003
127835;163997
127822;163979
127848;163981
127847;163995
127840;164014
127829;164069
127828;164067
127847;164083
127867;164069
127879;164117
127890;164126
127878;164150
127854;164165
127904;164184
127921;164184
127908;164214
127945;164301
127953;164349
127950;164397
127947;164415
127968;164414
128011;164421
127985;164436
127975;164448
127931;164351
127858;164159
127773;163918
127742;163710
127706;163533
127649;163444
127595;163365
127555;163283
127575;163213
127583;163209
127566;163157
127565;163155
127543;163145
127524;163122
127520;163079
127516;163049
127525;163004
127542;163059
127543;163069
127532;163066
127512;163063
127534;163085
127567;163078
127551;163094
127552;163153
127574;163198
127592;163247
127611;163272
127640;163315
127658;163338
127638;163366
127647;163401
127630;163420
127667;163430
127672;163430
127685;163441
127691;163454
127695;163479
127669;163524
127683;163528
127725;163531
127724;163553
127756;163613
127762;163633
127778;163678
127767;163745
127804;163772
127817;163796
127819;163806
127790;163888
127820;163929
127840;163939
127848;163927
127853;163945
127868;163933
127863;163989
127839;164026
127849;164028
127865;164030
127893;164045
127894;164069
127895;164090
127900;164143
127901;164201
127923;164212
127970;164247
127982;164282
128008;164359
128005;164412
128020;164457
128023;164489
128033;164501
128069;164480
128065;164489
128055;164568
128064;164597
128065;164617
128065;164649
128068;164651
128076;164609
128062;164596
128038;164659
128069;164680
128043;164647
128004;164527
127941;164321
127870;164051
127781;163850
127694;163723
127675;163609
127674;163504
127653;163461
127643;163395
127660;163351
127613;163310
127602;163324
127599;163300
127622;163252
127610;163219
127603;163253
127601;163255
127565;163229
127563;163210
127574;163200
127578;163175
127563;163191
127585;163249
127589;163289
127622;163331
127617;163334
127625;163373
127650;163353
127636;163383
127597;163411
127588;163406
127629;163373
127643;163385
127646;163379
127646;163391
127642;163400
127587;163411
127612;163384
127631;163358
127641;163352
127653;163442
127653;163459
127652;163489
127641;163496
127663;163510
127719;163507
127696;163560
127661;163577
127684;163615
127691;163627
127717;163638
127719;163668
127755;163705
127732;163725
127732;163773
127736;163758
127759;163749
127755;163773
127774;163829
127773;163822
127772;163899
127783;163933
127833;163978
127855;163968
127865;164021
127854;164093
127857;164136
127861;164139
127875;164163
127910;164173
127955;164243
127941;164288
127923;164370
127960;164402
128008;164482
128013;164484
128038;164553
128022;164502
128027;164576
127989;164589
127990;164609
128027;164564
127997;164553
127960;164383
127857;164150
127770;163915
127716;163789
127676;163617
127679;163544
127645;163464
127650;163486
127646;163426
127620;163441
127593;163376
127598;163386
127617;163292
127600;163314
127547;163309
127567;163361
127599;163334
127615;163364
127618;163366
127620;163401
127624;163400
127608;163470
127604;163430
127652;163452
127639;163509
127684;163548
127679;163565
127703;163636
127674;163643
127670;163651
127707;163604
127706;163633
127704;163618
127708;163652
127688;163651
127695;163662
127707;163654
127737;163659
127707;163658
127684;163720
127703;163710
127728;163746
127727;163761
127764;163775
127774;163787
127774;163845
127739;163884
127763;163930
127790;163903
127825;163949
127819;163973
127832;164052
127816;164031
127820;164087
127838;164070
127873;164093
127856;164109
127882;164191
127893;164191
127903;164242
127878;164221
127912;164253
127910;164190
127908;164238
127873;164262
127886;164312
127920;164337
127975;164393
127968;164412
128008;164479
127978;164519
127982;164555
127973;164545
127998;164528
128009;164547
128038;164664
128033;164698
128066;164755
128045;164727
128037;164697
127963;164439
127885;164201
127790;163998
127741;163850
127691;163726
127667;163648
127680;163576
127683;163535
127653;163499
127613;163530
127601;163489
127645;163497
127624;163457
127649;163457
127620;163445
127634;163465
127592;163481
127613;163481
127627;163456
127657;163499
127643;163518
127671;163563
127664;163591
127668;163628
127712;163635
127752;163669
127722;163684
127718;163739
127751;163777
127743;163771
127731;163757
127734;163759
127759;163728
127737;163737
127686;163756
127702;163767
127738;163754
127743;163774
127744;163786
127746;163791
127748;163805
127733;163848
127751;163854
127785;163839
127783;163896
127810;163955
127804;163985
127819;163997
127809;164013
127831;164039
127860;164039
127849;164063
127838;164115
127870;164171
127888;164229
127903;164244
127919;164291
127953;164306
127946;164345
127914;164384
127908;164369
127951;164326
127950;164381
127984;164422
127981;164462
127986;164508
127980;164563
128004;164574
128029;164566
128041;164573
128021;164616
128017;164641
128018;164670
128025;164722
128073;164750
128104;164783
128103;164829
128116;164893
128117;164893
128087;164847
128025;164674
127918;164391
127857;164112
127776;163926
127721;163832
127717;163771
127699;163701
127697;163647
127680;163620
127701;163536
127671;163522
127610;163541
127612;163485
127616;163452
127634;163464
127649;163477
127647;163481
127629;163483
127604;163489
127613;163456
127627;163419
127642;163424
127635;163480
127661;163522
127661;163539
127649;163600
127700;163632
127717;163614
127708;163622
127691;163690
127701;163689
127700;163694
127727;163698
127720;163700
127746;163672
127728;163738
127706;163742
127686;163754
127735;163752
127747;163757
127743;163780
127766;163787
127761;163832
127740;163888
127772;163888
127806;163894
127811;163949
127824;164020
127825;164039
127832;164030
127814;164049
127851;164068
127865;164048
127863;164099
127869;164187
127871;164217
127886;164247
127871;164246
127912;164264
127925;164265
127910;164305
127911;164335
127921;164359
127942;164392
127955;164427
128003;164455
127995;164468
127974;164482
127971;164494
127954;164497
127987;164488
127996;164554
128018;164612
128054;164706
128067;164737
128045;164786
128083;164794
128109;164790
128091;164795
128080;164828
128068;164754
127984;164575
127885;164310
127826;164113
127786;163942
127759;163826
127690;163736
127682;163698
127672;163610
127663;163577
127669;163545
127663;163525
127639;163521
127621;163525
127621;163510
127651;163493
127639;163504
127648;163499
127637;163501
127648;163485
127616;163495
127644;163500
127649;163494
127664;163530
127704;163609
127713;163663
127726;163752
127716;163739
127734;163752
127772;163748
127741;163745
127699;163780
127725;163797
127760;163776
127749;163799
127759;163810
127759;163800
127774;163846
127748;163843
127746;163835
127758;163824
127790;163831
127812;163914
127821;163977
127818;164030
127839;164063
127867;164086
127879;164117
127865;164120
127859;164168
127885;164197
127897;164197
127892;164236
127916;164276
127973;164311
127955;164359
127924;164401
127919;164427
127957;164429
127956;164425
127964;164430
127998;164435
127978;164475
127949;164519
127991;164519
127992;164502
128036;164551
128047;164629
128035;164637
128042;164659
128025;164683
128039;164661
128051;164660
128052;164673
128041;164729
128079;164763
128082;164787
128078;164796
128090;164800
128105;164764
128069;164733
128016;164705
127966;164551
127919;164352
127858;164152
127822;164004
127770;163880
127748;163793
127678;163731
127660;163645
127683;163572
127670;163542
127660;163554
127667;163560
127662;163568
127628;163551
127648;163520
127663;163479
127658;163470
127644;163517
127639;163529
127644;163524
127643;163522
127663;163556
127688;163572
127694;163622
127660;163691
127681;163700
127726;163718
127735;163740
127753;163777
127750;163742
127740;163745
127712;163759
127726;163769
127749;163734
127745;163747
127738;163787
127735;163823
127737;163817
127736;163831
127737;163837
127782;163825
127774;163851
127740;163907
127752;163936
127802;164009
127810;164001
127833;164045
127843;164031
127829;164083
127794;164076
127809;164123
127858;164080
127865;164141
127890;164170
127893;164265
127887;164259
127885;164301
127915;164297
127925;164299
127902;164249
127911;164312
127902;164290
127903;164349
127908;164334
127930;164389
127969;164399
127972;164450
127949;164486
127976;164537
127995;164519
128016;164560
128021;164558
128031;164610
128012;164634
128024;164737
128023;164750
128099;164818
128098;164852
128110;164906
128126;164874
128086;164862
127985;164668
127911;164431
127862;164138
127814;164020
127781;163924
127744;163881
127713;163793
127684;163764
127702;163681
127716;163631
127678;163613
127658;163648
127679;163611
127682;163647
127681;163615
127683;163645
127684;163605
127688;163645
127634;163646
127651;163663
127690;163621
127712;163683
127706;163689
127737;163768
127717;163791
127724;163853
127765;163836
127778;163831
127770;163809
127763;163874
127747;163842
127740;163881
127735;163842
127771;163888
127784;163828
127806;163910
127748;163889
127763;163935
127763;163902
127785;163945
127799;163924
127817;164006
127822;164032
127804;164096
127831;164063
127882;164116
127871;164098
127908;164196
127895;164206
127889;164242
127859;164218
127900;164243
127916;164220
127915;164284
127888;164315
127939;164402
127941;164395
127943;164421
127934;164387
127956;164400
127920;164384
127913;164442
127902;164428
127959;164451
127952;164448
128004;164539
128006;164542
128012;164596
127974;164621
128000;164653
128009;164595
128035;164619
128030;164686
128045;164729
128050;164785
128061;164808
128072;164821
128106;164833
128079;164838
128117;164883
128084;164865
128057;164780
127949;164594
127900;164353
127838;164129
127800;163993
127713;163919
127721;163828
127701;163766
127690;163689
127673;163643
127684;163605
127665;163625
127642;163610
127624;163594
127681;163580
127657;163580
127666;163571
127646;163563
127648;163549
127609;163565
127649;163565
127660;163526
127676;163543
127689;163651
127703;163689
127710;163725
127717;163762
127735;163776
127767;163775
127736;163766
127718;163791
127730;163813
127744;163827
127761;163826
127765;163851
127783;163818
127762;163837
127708;163883
127735;163885
127763;163857
127805;163908
127808;163939
127830;163975
127847;164041
127836;164104
127853;164126
127870;164121
127876;164116
127885;164170
127888;164209
127913;164226
127899;164253
127920;164288
127977;164306
127957;164339
127936;164395
127970;164433
127971;164468
127975;164457
127979;164482
128001;164470
127990;164484
127971;164575
127985;164564
128030;164599
128025;164605
128026;164609
128034;164609
128026;164640
127995;164657
127993;164645
128041;164639
128049;164688
128082;164758
128090;164806
128088;164852
128078;164863
128113;164898
128135;164880
128147;164916
128151;164985
128160;165025
128133;165043
128132;164984
128083;164874
128040;164603
127914;164334
127817;164150
127789;164028
127761;163923
127731;163821
127725;163782
127739;163729
127712;163715
127694;163733
127684;163705
127707;163671
127688;163609
127708;163624
127687;163616
127692;163603
127659;163640
127673;163610
127689;163590
127702;163588
127685;163642
127702;163638
127696;163658
127686;163678
127734;163688
127748;163707
127736;163726
127731;163794
127752;163825
127761;163835
127746;163821
127747;163824
127775;163795
127742;163789
127730;163845
127720;163836
127770;163791
127761;163827
127774;163858
127769;163878
127775;163913
127775;163937
127790;163955
127814;163961
127847;164007
127851;164081
127891;164156
127890;164184
127873;164206
127903;164227
127917;164181
127904;164221
127855;164262
127888;164282
127920;164314
127960;164366
127969;164429
127992;164466
127981;164503
127955;164540
127969;164540
128003;164524
128002;164568
128004;164565
128021;164576
128013;164627
127998;164689
128019;164675
128043;164628
128031;164662
128051;164701
128041;164733
128044;164736
128047;164767
128054;164778
128080;164808
128087;164823
128120;164896
128113;164947
128126;164955
128112;164968
128132;164948
128136;164861
128038;164743
127917;164546
127871;164340
127806;164132
127771;163983
127763;163884
127718;163768
127694;163699
127659;163700
127645;163653
127670;163609
127664;163584
127671;163589
127656;163593
127649;163584
127625;163585
127626;163558
127634;163497
127642;163519
127651;163546
127653;163603
127653;163620
127663;163633
127695;163676
127733;163678
127726;163727
127695;163761
127713;163788
127744;163814
127739;163818
127782;163837
127774;163835
127739;163859
127732;163893
127718;163891
127757;163820
127759;163856
127753;163859
127761;163862
127743;163927
127748;163915
127786;163973
127827;163988
127816;164019
127816;164082
127841;164129
127856;164175
127828;164181
127862;164192
127880;164195
127883;164240
127860;164290
127900;164339
127922;164345
127936;164386
127941;164392
127958;164404
127939;164441
127926;164451
127946;164489
127963;164484
127971;164481
128005;164574
127992;164605
127990;164608
127988;164638
128028;164627
128037;164614
127998;164621
128018;164699
128053;164732
128065;164779
128070;164830
128091;164866
128110;164855
128108;164915
128091;164957
128115;165007
128133;165018
128149;165045
128164;165063
128149;164981
128086;164849
127962;164646
127880;164387
127847;164159
127795;164063
127797;163962
127768;163886
127733;163838
127686;163825
127689;163775
127696;163714
127698;163695
127703;163718
127692;163738
127679;163709
127673;163719
127686;163676
127700;163645
127689;163665
127660;163706
127684;163708
127693;163744
127685;163742
127719;163779
127744;163780
127731;163864
127729;163899
127726;163929
127775;163906
127793;163933
127773;163911
127764;163932
127762;163912
127729;163933
127716;163862
127748;163858
127761;163848
127773;163949
127778;163955
127784;164026
127790;164032
127796;164065
127840;164070
127831;164055
127806;164100
127821;164145
127811;164128
127798;164144
127817;164126
127841;164157
127823;164154
127781;164203
127773;164165
127832;164204
127827;164205
127843;164231
127874;164226
127862;164286
127850;164307
127844;164331
127895;164299
127893;164341
127895;164373
127904;164405
127877;164390
127858;164410
127907;164396
127949;164431
127935;164424
127923;164525
127953;164519
127961;164592
127926;164563
127962;164588
127970;164556
127967;164645
127947;164692
127977;164736
127990;164707
127988;164656
127903;164473
127840;164289
127772;164098
127716;164027
127685;163878
127696;163803
127666;163759
127677;163751
127654;163688
127644;163684
127594;163622
127623;163613
127621;163544
127619;163549
127600;163572
127619;163593
127611;163578
127616;163596
127601;163555
127646;163560
127610;163554
127575;163607
127598;163601
127638;163653
127634;163658
127696;163744
127690;163728
127695;163793
127647;163804
127655;163810
127666;163723
127682;163706
127668;163726
127688;163747
127659;163753
127647;163785
127678;163754
127703;163762
127684;163750
127696;163852
127707;163860
127733;163928
127720;163906
127746;163956
127776;163936
127746;163969
127721;164003
127743;164045
127759;164016
127775;164058
127784;164053
127819;164109
127786;164113
127820;164209
127815;164220
127853;164259
127861;164282
127884;164323
127854;164311
127861;164340
127825;164314
127860;164338
127862;164282
127886;164295
127886;164350
127903;164391
127861;164391
127859;164368
127862;164366
127913;164364
127862;164357
127841;164410
127842;164383
127888;164393
127866;164381
127877;164396
127873;164345
127836;164302
127770;164296
127761;164238
127765;164146
127741;164066
127701;163985
127669;163851
127620;163760
127579;163673
127529;163551
127563;163418
127502;163341
127472;163267
127432;163177
127406;163093
127325;163014
127333;162876
127315;162783
127268;162724
127202;162694
127201;162677
127183;162654
127187;162594
127169;162552
127180;162497
127130;162486
127098;162493
127077;162469
127115;162437
127088;162461
127110;162439
127061;162445
127041;162416
126994;162374
126958;162321
126946;162253
126941;162205
126940;162221
126917;162234
126892;162206
126888;162230
126922;162237
126971;162259
126917;162265
126929;162302
126948;162368
126963;162407
126989;162440
127019;162483
127057;162472
127025;162511
126996;162547
126979;162574
127011;162544
127002;162516
127013;162576
127034;162614
127024;162615
127012;162669
127012;162629
127062;162637
127082;162654
127105;162742
127132;162777
127131;162805
127122;162857
127156;162866
127194;162858
127162;162873
127163;162912
127166;162934
127173;162946
127189;162957
127201;162956
127196;162931
127177;162951
127168;162992
127176;163003
127222;163001
127197;163010
127227;163007
127214;163019
127210;163068
127207;163108
127214;163133
127246;163109
127259;163129
127267;163214
127267;163217
127256;163158
127208;163071
127181;162961
127171;162845
127127;162747
127059;162681
127063;162583
127028;162511
127002;162418
127002;162364
126982;162291
126966;162282
126953;162254
126922;162239
126948;162200
126942;162182
126937;162179
126926;162152
126906;162133
126870;162099
126880;162075
126903;162034
126879;162019
126893;162074
126895;162094
126900;162139
126902;162146
126924;162172
126945;162179
126933;162194
126920;162250
126940;162292
126981;162318
126982;162351
126993;162338
127008;162339
126966;162336
126940;162374
126948;162330
126953;162288
126947;162311
126978;162373
126994;162408
127006;162443
127009;162480
127049;162525
127084;162526
127083;162554
127088;162619
127083;162625
127096;162651
127088;162653
127118;162714
127175;162713
127158;162781
127120;162834
127143;162874
127170;162876
127206;162903
127214;162915
127224;162961
127231;162985
127196;163035
127213;163024
127234;163030
127228;163029
127225;163060
127236;163049
127224;163073
127201;163102
127237;163088
127259;163088
127260;163109
127250;163200
127304;163271
127346;163340
127365;163428
127363;163430
127372;163426
127364;163453
127354;163501
127356;163536
127383;163557
127380;163519
127359;163525
127349;163450
127295;163388
127209;163266
127152;163076
127116;162867
127057;162733
127009;162622
126966;162512
126938;162403
126879;162287
126851;162190
126862;162120
126829;162070
126779;162083
126805;162085
126847;162075
126840;162101
126866;162114
126880;162107
126851;162129
126845;162173
126844;162165
126897;162184
126921;162250
126949;162281
126959;162325
126946;162382
126958;162418
126966;162445
127005;162446
127021;162470
127024;162506
127027;162573
127037;162601
127050;162682
127105;162725
127149;162730
127128;162765
127128;162828
127170;162874
127147;162921
127162;162897
127163;162914
127189;162934
127190;163015
127177;163046
127180;163057
127215;163078
127230;163114
127254;163143
127247;163180
127276;163259
127258;163338
127301;163408
127362;163409
127372;163490
127398;163577
127397;163617
127412;163647
127422;163684
127429;163708
127464;163714
127452;163746
127421;163774
127417;163788
127443;163783
127433;163741
127433;163732
127442;163681
127422;163702
127393;163752
127398;163754
127439;163725
127442;163745
127472;163776
127478;163853
127474;163843
127451;163827
127467;163829
127487;163826
127471;163779
127480;163821
127467;163827
127476;163865
127483;163851
127492;163846
127488;163729
127394;163573
127299;163422
127266;163274
127249;163120
127231;163031
127235;162955
127220;162933
127196;162881
127188;162887
127145;162849
127175;162815
127185;162777
127205;162824
127196;162808
127186;162848
127180;162803
127209;162840
127238;162830
127239;162876
127252;162934
127258;163021
127281;163016
127285;163071
127299;163054
127323;163100
127318;163121
127297;163166
127292;163157
127339;163168
127320;163132
127320;163118
127305;163084
127293;163112
127259;163109
127277;163129
127309;163073
127313;163111
127324;163118
127329;163163
127317;163178
127321;163210
127364;163220
127412;163253
127387;163313
127382;163404
127401;163405
127440;163496
127436;163455
127450;163507
127460;163494
127428;163541
127419;163573
127422;163584
127469;163577
127483;163644
127497;163660
127479;163704
127496;163696
127461;163730
127511;163721
127540;163734
127545;163754
127567;163849
127559;163863
127574;163921
127572;163915
127573;163912
127587;163856
127572;163900
127540;163900
127580;163952
127582;163922
127567;163919
127544;163827
127520;163749
127417;163573
127362;163450
127284;163233
127311;163105
127282;163046
127305;163053
127286;162996
127281;163002
127249;162934
127255;162911
127264;162821
127236;162817
127200;162791
127213;162811
127191;162786
127196;162767
127190;162754
127192;162740
127153;162695
127130;162714
127124;162689
127186;162743
127200;162744
127246;162842
127250;162883
127287;162961
127276;163001
127308;163051
127320;163009
127345;163073
127358;163098
127357;163148
127341;163109
127311;163090
127307;163022
127329;162995
127270;162962
127235;162973
127220;162957
127256;162971
127264;162967
127308;163015
127308;163012
127321;163102
127286;163132
127322;163181
127337;163128
127347;163208
127373;163236
127430;163344
127437;163413
127462;163513
127501;163531
127530;163599
127523;163603
127530;163680
127542;163735
127586;163753
127552;163780
127582;163798
127595;163814
127619;163847
127558;163894
127573;163881
127586;163845
127602;163886
127609;163884
127626;163931
127634;163994
127655;164066
127675;164096
127718;164114
127695;164097
127703;164111
127627;163958
127566;163753
127476;163554
127451;163424
127448;163253
127385;163167
127318;163118
127336;163080
127330;163026
127347;163004
127361;163008
127372;162985
127318;162960
127292;162947
127267;162924
127306;162891
127309;162888
127306;162898
127271;162894
127295;162901
127281;162903
127317;162916
127336;162913
127337;162951
127333;163034
127394;163079
127376;163125
127385;163135
127402;163150
127427;163134
127406;163173
127379;163211
127378;163206
127416;163195
127422;163197
127424;163211
127444;163207
127418;163218
127384;163243
127410;163224
127447;163218
127453;163265
127462;163326
127469;163411
127476;163429
127489;163443
127513;163460
127539;163461
127527;163486
127518;163537
127525;163546
127523;163591
127531;163596
127555;163665
127580;163669
127578;163738
127574;163772
127585;163786
127618;163801
127633;163848
127664;163876
127652;163906
127675;163949
127651;164003
127660;164020
127705;164028
127711;164015
127704;164065
127693;164048
127661;163982
127597;163860
127553;163658
127509;163447
127434;163315
127383;163192
127365;163108
127343;163013
127311;162934
127293;162882
127289;162808
127254;162775
127233;162771
127220;162748
127224;162729
127217;162662
127216;162687
127207;162636
127184;162651
127156;162655
127177;162646
127212;162628
127247;162700
127270;162793
127267;162851
127305;162942
127320;162978
127360;163005
127400;163034
127379;163058
127359;163103
127371;163126
127396;163142
127386;163127
127408;163124
127397;163097
127353;163070
127347;163084
127341;163089
127373;163046
127358;163085
127392;163131
127412;163193
127383;163227
127400;163255
127428;163278
127442;163281
127467;163273
127455;163374
127483;163407
127485;163448
127488;163482
127519;163473
127517;163433
127495;163465
127457;163459
127461;163481
127506;163485
127526;163533
127551;163576
127566;163597
127540;163614
127522;163618
127505;163599
127523;163544
127523;163544
127530;163556
127509;163547
127482;163437
127413;163338
127397;163222
127394;163091
127329;162964
127275;162867
127229;162776
127211;162682
127163;162593
127162;162545
127157;162491
127119;162463
127096;162481
127065;162447
127120;162423
127118;162423
127127;162430
127121;162428
127107;162439
127067;162443
127099;162441
127127;162434
127152;162470
127167;162576
127184;162628
127230;162689
127273;162775
127299;162855
127354;162894
127356;162931
127328;162969
127320;162961
127338;162965
127312;162918
127308;162893
127321;162856
127286;162876
127268;162944
127303;162945
127318;162974
127360;163060
127382;163107
127386;163171
127382;163192
127370;163217
127377;163203
127404;163199
127413;163189
127398;163287
127422;163329
127430;163360
127445;163386
127489;163453
127509;163445
127482;163495
127485;163535
127489;163563
127535;163562
127529;163580
127549;163610
127579;163654
127579;163700
127546;163736
127557;163721
127579;163649
127537;163551
127481;163431
127422;163272
127360;163121
127290;162986
127300;162880
127269;162753
127250;162700
127221;162689
127203;162665
127191;162620
127171;162574
127168;162563
127188;162509
127151;162555
127137;162571
127133;162566
127169;162551
127158;162558
127174;162564
127201;162591
127203;162621
127174;162691
127196;162692
127230;162685
127226;162693
127216;162710
127196;162717
127188;162709
127159;162691
127199;162690
127237;162697
127216;162745
127233;162769
127226;162819
127253;162807
127244;162789
127247;162776
127254;162779
127246;162805
127243;162870
127259;162874
127276;162847
127256;162858
127260;162869
127249;162843
127215;162836
127203;162837
127203;162843
127239;162815
127248;162815
127257;162882
127272;162919
127274;162945
127260;162953
127291;162973
127340;162973
127335;163015
127312;163113
127356;163182
127420;163258
127429;163290
127445;163295
127454;163307
127433;163297
127364;163240
127304;163112
127289;162943
127265;162832
127220;162720
127178;162635
127144;162530
127106;162485
127095;162382
127100;162336
127077;162260
127059;162306
127062;162278
127056;162255
127025;162189
127033;162188
127038;162126
127030;162150
126997;162139
126986;162191
127040;162188
127043;162206
127064;162210
127076;162264
127070;162262
127052;162364
127063;162352
127116;162361
127112;162387
127117;162427
127117;162413
127101;162463
127098;162418
127119;162408
127115;162363
127119;162401
127106;162418
127125;162494
127136;162497
127154;162556
127173;162582
127239;162613
127179;162641
127158;162722
127173;162676
127219;162699
127220;162725
127233;162726
127231;162692
127236;162764
127188;162749
127200;162775
127220;162701
127223;162731
127224;162746
127241;162794
127221;162782
127229;162816
127251;162800
127284;162828
127235;162828
127218;162879
127247;162886
127268;162934
127285;162932
127322;162969
127307;162960
127314;162996
127258;162946
127237;162864
127204;162718
127200;162648
127130;162506
127112;162454
127057;162332
127024;162285
127015;162166
127027;162095
127018;162047
127023;162122
126996;162072
127019;162107
126991;162076
127025;162105
127039;162043
127024;162092
126982;162043
126973;162075
126990;162038
127012;162079
127011;162061
127032;162117
127021;162136
127017;162188
126991;162143
127040;162128
127008;162110
127052;162184
127011;162164
127018;162180
126991;162146
127035;162200
127044;162162
127048;162185
127016;162204
127043;162281
127065;162279
127102;162334
127112;162340
127157;162414
127140;162422
127169;162527
127131;162529
127191;162537
127183;162548
127191;162571
127216;162652
127257;162757
127236;162781
127296;162803
127289;162805
127306;162793
127265;162841
127278;162848
127262;162850
127294;162860
127311;162896
127373;162961
127369;163045
127359;163102
127373;163176
127447;163207
127442;163249
127467;163311
127476;163331
127492;163383
127468;163415
127494;163454
127540;163477
127540;163473
127519;163500
127538;163517
127510;163490
127505;163466
127463;163331
127468;163158
127376;163054
127321;162931
127301;162792
127284;162708
127248;162637
127262;162558
127216;162504
127187;162474
127156;162471
127153;162439
127197;162385
127196;162400
127186;162400
127192;162400
127168;162387
127136;162375
127164;162366
127171;162321
127160;162336
127149;162377
127190;162415
127188;162452
127197;162484
127249;162522
127240;162494
127221;162547
127205;162584
127202;162587
127247;162566
127246;162584
127267;162586
127268;162600
127248;162626
127239;162663
127252;162650
127273;162606
127266;162654
127304;162685
127303;162715
127304;162747
127277;162758
127304;162757
127317;162756
127314;162762
127315;162817
127301;162831
127288;162843
127299;162847
127314;162847
127364;162864
127337;162875
127322;162956
127343;162999
127400;163018
127403;163051
127426;163101
127439;163089
127441;163124
127408;163186
127394;163145
127441;163112
127428;163115
127405;163130
127414;163150
127415;163161
127390;163172
127436;163193
127484;163191
127465;163259
127487;163350
127524;163391
127542;163457
127545;163486
127580;163547
127610;163508
127573;163484
127480;163410
127426;163255
127387;163047
127352;162891
127319;162793
127303;162720
127278;162654
127223;162639
127230;162560
127236;162510
127215;162491
127207;162457
127185;162431
127161;162408
127127;162377
127142;162344
127157;162314
127149;162303
127153;162364
127165;162383
127165;162436
127165;162435
127196;162471
127229;162489
127214;162507
127217;162565
127229;162592
127236;162613
127227;162608
127239;162611
127238;162586
127232;162600
127214;162634
127213;162633
127250;162622
127251;162615
127245;162641
127245;162677
127239;162676
127206;162678
127222;162660
127241;162677
127238;162692
127274;162727
127276;162790
127288;162846
127297;162843
127313;162905
127371;162908
127355;162960
127352;163000
127355;163065
127399;163087
127393;163133
127422;163153
127438;163170
127429;163207
127412;163234
127404;163231
127431;163164
127417;163198
127437;163269
127457;163303
127473;163378
127484;163434
127535;163475
127574;163500
127567;163563
127564;163608
127571;163627
127575;163631
127587;163635
127601;163669
127616;163689
127632;163744
127601;163798
127596;163845
127664;163843
127652;163856
127680;163873
127671;163851
127659;163860
127604;163806
127544;163646
127485;163359
127406;163115
127335;162968
127287;162818
127239;162694
127215;162607
127176;162532
127178;162435
127138;162371
127082;162380
127109;162354
127126;162356
127129;162346
127129;162358
127152;162355
127118;162363
127104;162358
127086;162348
127129;162370
127137;162378
127161;162426
127175;162468
127201;162513
127189;162597
127189;162599
127247;162603
127246;162616
127251;162679
127250;162694
127260;162696
127240;162690
127255;162684
127281;162650
127267;162656
127239;162669
127245;162701
127257;162715
127270;162721
127291;162771
127342;162785
127350;162880
127332;162969
127372;163038
127421;163075
127439;163134
127472;163161
127453;163183
127452;163180
127442;163220
127424;163238
127486;163243
127496;163301
127519;163369
127538;163455
127569;163482
127565;163568
127625;163618
127656;163635
127661;163658
127619;163691
127646;163720
127640;163744
127642;163741
127663;163747
127682;163761
127651;163772
127665;163830
127641;163835
127705;163873
127716;163898
127706;163963
127728;163968
127735;164025
127710;164066
127737;164082
127764;164073
127757;164075
127770;164082
127709;163991
127634;163784
127518;163508
127488;163286
127450;163123
127403;162996
127384;162953
127346;162901
127337;162862
127310;162798
127310;162763
127319;162687
127272;162698
127234;162679
127226;162669
127265;162614
127264;162633
127262;162607
127290;162663
127288;162678
127288;162770
127301;162792
127359;162806
127368;162835
127368;162916
127391;162939
127387;162963
127352;162970
127371;162966
127368;162920
127342;162895
127327;162878
127318;162888
127320;162869
127311;162850
127317;162837
127361;162871
127343;162902
127343;162979
127361;162983
127387;163047
127375;163008
127396;163017
127386;162997
127389;163042
127339;163082
127356;163124
127425;163111
127461;163245
127485;163245
127482;163306
127465;163254
127414;163253
127402;163171
127409;163169
127407;163119
127429;163227
127430;163231
127463;163323
127499;163357
127531;163460
127576;163462
127586;163522
127541;163519
127540;163523
127498;163433
127486;163413
127465;163343
127478;163380
127468;163396
127479;163498
127489;163513
127550;163587
127575;163647
127634;163781
127659;163851
127688;163964
127671;163987
127708;164050
127705;163984
127679;163979
127654;163910
127609;163840
127535;163623
127460;163428
127434;163245
127437;163142
127382;163055
127353;163017
127343;162948
127356;162971
127340;162890
127361;162918
127348;162849
127338;162880
127275;162835
127268;162804
127280;162719
127281;162759
127288;162775
127295;162806
127310;162839
127322;162865
127335;162875
127346;162936
127357;162882
127363;163015
127377;163031
127394;163080
127358;163021
127370;163034
127372;162940
127313;162970
127278;162929
127290;162920
127320;162885
127326;162900
127292;162859
127314;162891
127293;162853
127268;162887
127266;162852
127293;162847
127315;162868
127345;162965
127354;163038
127368;163090
127367;163087
127379;163116
127400;163072
127392;163077
127325;163088
127372;163117
127377;163132
127378;163151
127394;163165
127435;163201
127405;163246
127398;163308
127402;163305
127441;163292
127448;163309
127482;163396
127479;163425
127483;163453
127454;163485
127494;163474
127499;163466
127512;163474
127512;163542
127530;163557
127518;163608
127542;163609
127548;163611
127565;163612
127535;163635
127528;163671
127520;163698
127576;163744
127567;163752
127620;163782
127612;163755
127583;163703
127473;163563
127447;163388
127404;163185
127375;163076
127334;162988
127313;162945
127283;162902
127269;162879
127317;162836
127310;162829
127307;162804
127291;162845
127283;162866
127289;162855
127288;162847
127301;162845
127313;162825
127294;162851
127267;162878
127295;162922
127339;162958
127353;163024
127397;163069
127416;163108
127414;163128
127380;163148
127402;163143
127397;163131
127404;163106
127403;163130
127391;163157
127398;163149
127384;163134
127415;163159
127428;163151
127418;163148
127394;163187
127417;163227
127433;163248
127437;163240
127472;163254
127475;163285
127444;163319
127451;163358
127451;163385
127501;163398
127517;163433
127536;163486
127525;163541
127541;163601
127538;163614
127558;163619
127571;163621
127569;163646
127584;163720
127607;163770
127642;163789
127643;163800
127641;163842
127675;163863
127660;163894
127641;163938
127635;163934
127668;163946
127679;163936
127689;163957
127695;163965
127710;164002
127695;164070
127716;164106
127753;164108
127771;164178
127767;164192
127745;164182
127695;164075
127602;163881
127547;163662
127519;163471
127490;163327
127450;163284
127448;163234
127420;163185
127408;163105
127413;163084
127403;163032
127380;163015
127333;163035
127352;163026
127383;163013
127393;163032
127394;163054
127409;163058
127398;163086
127399;163110
127384;163133
127426;163110
127446;163145
127466;163229
127474;163298
127477;163349
127497;163379
127493;163389
127556;163377
127512;163373
127521;163436
127545;163426
127515;163426
127526;163437
127529;163451
127555;163432
127537;163459
127523;163491
127523;163499
127564;163472
127559;163495
127599;163562
127604;163609
127615;163642
127598;163709
127614;163735
127648;163706
127651;163733
127661;163774
127651;163810
127654;163833
127642;163818
127663;163860
127697;163870
127712;163918
127678;163989
127707;164020
127742;164042
127748;164046
127762;164057
127776;164067
127755;164079
127714;164132
127725;164126
127761;164115
127775;164180
127786;164216
127783;164240
127786;164271
127763;164271
127796;164288
127827;164267
127802;164242
127806;164294
127754;164181
127671;163989
127587;163743
127539;163565
127523;163357
127467;163274
127414;163241
127431;163178
127411;163153
127416;163121
127396;163064
127406;163037
127379;163037
127360;163053
127350;163037
127380;162995
127398;163039
127394;163053
127392;163070
127383;163053
127364;163071
127383;163059
127416;163042
127408;163055
127398;163133
127426;163175
127448;163241
127473;163260
127504;163311
127514;163317
127493;163339
127462;163321
127451;163312
127476;163278
127473;163268
127479;163279
127480;163303
127492;163334
127474;163385
127504;163391
127542;163395
127560;163419
127560;163486
127531;163504
127554;163540
127565;163532
127572;163575
127607;163558
127588;163585
127591;163656
127603;163679
127614;163725
127632;163726
127637;163748
127681;163772
127665;163828
127657;163883
127663;163882
127709;163894
127696;163943
127710;163953
127729;163967
127714;163989
127690;164003
127688;164005
127732;163977
127716;164007
127742;164084
127750;164099
127764;164148
127734;164169
127773;164161
127765;164073
127703;163937
127620;163787
127579;163616
127532;163486
127482;163343
127491;163261
127465;163176
127429;163121
127402;163073
127367;163044
127389;162982
127377;162980
127383;162939
127389;162947
127368;162965
127342;162990
127348;162941
127375;162912
127365;162883
127369;162940
127363;162933
127359;162965
127362;162968
127400;163006
127418;163041
127435;163061
127427;163149
127438;163196
127435;163185
127431;163199
127453;163176
127478;163186
127462;163215
127438;163268
127460;163257
127494;163273
127492;163259
127506;163314
127517;163281
127501;163355
127490;163369
127509;163399
127542;163387
127571;163416
127597;163507
127589;163572
127586;163595
127583;163628
127602;163587
127646;163615
127614;163632
127597;163692
127631;163698
127650;163762
127663;163724
127640;163771
127653;163733
127641;163775
127638;163795
127629;163814
127668;163786
127687;163840
127693;163861
127694;163925
127696;163911
127669;163946
127690;163903
127714;163917
127713;163919
127724;163999
127732;164037
127749;164064
127734;164059
127743;164031
127722;163886
127631;163752
127543;163561
127482;163446
127466;163302
127443;163205
127434;163113
127426;163053
127384;162985
127339;162958
127314;162894
127343;162831
127325;162790
127333;162795
127308;162764
127281;162772
127262;162726
127278;162726
127290;162665
127271;162661
127264;162660
127286;162687
127273;162692
127259;162698
127290;162703
127326;162733
127330;162772
127323;162884
127328;162860
127375;162904
127359;162871
127388;162901
127345;162832
127332;162874
127311;162877
127290;162904
127336;162848
127358;162911
127374;162928
127385;162994
127370;163013
127399;163072
127411;163022
127444;163082
127432;163081
127441;163172
127453;163199
127463;163269
127449;163228
127480;163266
127498;163246
127502;163328
127479;163339
127509;163394
127518;163409
127578;163458
127549;163472
127588;163550
127575;163557
127575;163637
127589;163623
127614;163640
127619;163638
127654;163732
127662;163739
127684;163831
127652;163846
127701;163884
127721;163863
127717;163937
127704;163978
127735;164050
127770;164116
127802;164173
127819;164218
127853;164261
127825;164287
127810;164325
127773;164232
127754;164075
127671;163861
127614;163649
127540;163499
127516;163357
127471;163261
127449;163193
127431;163061
127421;162998
127387;162967
127373;162951
127371;162916
127372;162902
127395;162907
127401;162901
127380;162878
127354;162898
127339;162876
127378;162863
127347;162830
127382;162840
127373;162829
127368;162875
127341;162899
127374;162947
127404;162952
127435;162996
127427;163039
127432;163072
127427;163074
127410;163054
127419;163061
127444;163020
127433;162988
127437;163073
127425;163078
127440;163134
127434;163118
127479;163148
127487;163160
127486;163166
127448;163210
127486;163256
127504;163307
127546;163332
127566;163370
127582;163417
127547;163417
127537;163478
127529;163440
127573;163429
127572;163433
127607;163525
127619;163571
127628;163630
127619;163670
127665;163715
127690;163717
127693;163724
127697;163810
127694;163843
127690;163845
127717;163863
127723;163910
127765;163911
127770;163969
127764;164044
127780;164078
127797;164096
127796;164066
127815;164091
127823;164116
127817;164173
127814;164253
127837;164284
127884;164299
127897;164353
127929;164426
127914;164456
127911;164479
127877;164424
127872;164317
127812;164078
127717;163831
127644;163718
127604;163568
127561;163432
127515;163310
127524;163227
127536;163153
127483;163124
127449;163110
127431;163099
127469;163085
127463;163047
127445;163024
127453;163006
127424;162991
127419;163042
127423;163007
127443;162979
127456;163015
127458;163066
127472;163110
127460;163135
127456;163139
127486;163173
127509;163166
127534;163204
127534;163249
127531;163282
127543;163300
127529;163288
127542;163266
127569;163244
127530;163281
127503;163318
127494;163290
127539;163313
127568;163321
127560;163348
127575;163375
127583;163445
127552;163471
127564;163463
127589;163442
127582;163458
127601;163509
127622;163567
127635;163627
127652;163659
127686;163730
127734;163749
127701;163774
127694;163836
127711;163833
127706;163839
127703;163833
127719;163817
127735;163840
127735;163884
127744;163930
127731;163991
127767;164002
127793;164026
127782;164036
127795;164042
127786;164058
127751;164088
127783;164072
127823;164110
127834;164156
127862;164249
127872;164320
127879;164357
127888;164389
127906;164407
127928;164416
127923;164470
127906;164468
127902;164515
127898;164484
127873;164398
127817;164207
127748;163943
127648;163760
127584;163598
127538;163450
127528;163324
127495;163235
127467;163184
127460;163117
127444;163079
127402;163049
127406;163018
127416;162960
127403;162942
127407;162960
127402;162987
127396;163000
127403;162966
127409;162967
127430;162936
127406;162951
127387;163004
127411;163049
127453;163063
127454;163095
127487;163126
127490;163150
127485;163207
127479;163221
127473;163229
127489;163173
127517;163161
127503;163202
127492;163211
127484;163187
127464;163209
127482;163208
127528;163201
127501;163228
127504;163279
127530;163305
127518;163355
127542;163342
127551;163384
127577;163408
127584;163452
127564;163509
127545;163501
127597;163495
127620;163542
127615;163569
127617;163604
127622;163618
127598;163625
127624;163629
127651;163616
127634;163620
127621;163647
127625;163663
127624;163664
127627;163678
127645;163711
127661;163700
127673;163757
127636;163785
127629;163776
127649;163760
127652;163752
127630;163754
127653;163738
127620;163756
127633;163791
127666;163829
127699;163853
127747;163934
127753;164006
127755;164051
127751;164057
127743;164081
127767;164071
127791;164043
127772;164068
127743;164142
127771;164177
127802;164219
127816;164193
127815;164160
127730;163961
127639;163753
127544;163577
127466;163369
127460;163224
127427;163132
127430;163031
127398;162980
127371;162919
127337;162889
127330;162839
127354;162783
127318;162730
127313;162720
127288;162706
127273;162690
127266;162663
127293;162646
127303;162623
127291;162629
127271;162627
127259;162646
127266;162625
127257;162642
127282;162632
127296;162632
127287;162693
127273;162760
127272;162743
127322;162759
127314;162757
127331;162784
127321;162768
127302;162765
127270;162767
127282;162777
127307;162731
127323;162765
127320;162809
127354;162868
127341;162878
127342;162893
127368;162887
127386;162949
127400;162938
127380;163039
127384;163051
127426;163092
127441;163123
127451;163156
127462;163149
127449;163186
127433;163216
127436;163238
127483;163198
127490;163267
127499;163289
127514;163367
127499;163368
127500;163416
127534;163407
127543;163421
127549;163411
127556;163529
127557;163541
127593;163602
127595;163613
127617;163673
127656;163672
127657;163734
127624;163773
127633;163805
127684;163793
127698;163839
127709;163849
127741;163919
127721;163930
127708;164002
127715;163985
127759;164025
127758;164027
127775;164133
127779;164126
127796;164187
127786;164198
127811;164267
127851;164196
127796;164166
127691;163983
127617;163792
127561;163534
127507;163355
127463;163185
127437;163088
127391;163017
127377;163004
127359;162924
127391;162881
127363;162820
127358;162856
127299;162779
127305;162751
127259;162679
127257;162647
127259;162556
127246;162571
127244;162584
127260;162606
127246;162631
127258;162639
127265;162629
127320;162662
127292;162640
127270;162721
127289;162738
127329;162781
127311;162779
127360;162831
127366;162824
127359;162861
127324;162885
127338;162913
127366;162847
127349;162886
127372;162903
127396;162984
127385;162983
127382;163040
127421;163031
127445;163054
127447;163089
127447;163171
127472;163187
127480;163258
127486;163229
127527;163301
127528;163305
127528;163369
127506;163398
127499;163430
127545;163365
127556;163466
127568;163465
127572;163549
127592;163551
127600;163625
127610;163619
127646;163652
127631;163648
127643;163725
127635;163736
127643;163765
127643;163750
127683;163818
127723;163797
127707;163852
127660;163902
127690;163943
127710;163931
127728;163946
127735;163938
127731;163957
127733;163985
127717;164064
127712;164055
127780;164087
127776;164106
127790;164192
127783;164222
127826;164258
127778;164290
127824;164277
127835;164279
127813;164222
127752;164125
127683;163920
127614;163706
127559;163509
127523;163374
127491;163244
127451;163172
127433;163124
127372;163084
127444;163045
127405;163024
127425;163028
127421;162978
127389;163004
127344;162989
127371;162957
127386;162893
127384;162909
127390;162923
127398;162962
127372;162969
127403;162979
127406;163035
127433;163013
127418;163092
127428;163134
127413;163148
127466;163190
127464;163169
127488;163186
127473;163177
127464;163199
127442;163227
127453;163220
127504;163209
127503;163255
127510;163291
127517;163348
127532;163382
127541;163393
127574;163439
127595;163455
127606;163460
127607;163571
127615;163621
127660;163677
127651;163716
127665;163740
127713;163773
127709;163838
127674;163878
127672;163918
127728;163920
127762;163976
127765;164023
127784;164092
127802;164147
127790;164213
127825;164240
127845;164220
127832;164231
127856;164287
127853;164313
127854;164318
127823;164330
127875;164344
127905;164355
127887;164384
127896;164431
127902;164462
127888;164469
127910;164480
127927;164508
127944;164505
127937;164557
127904;164633
127919;164639
127970;164644
127954;164672
127981;164714
127983;164686
127945;164623
127864;164468
127762;164193
127715;163890
127661;163709
127603;163627
127576;163505
127530;163454
127506;163360
127523;163298
127534;163254
127499;163240
127460;163239
127453;163226
127477;163219
127479;163207
127494;163203
127511;163226
127492;163250
127476;163272
127488;163273
127509;163257
127529;163295
127525;163329
127555;163398
127550;163451
127566;163505
127613;163549
127636;163549
127619;163594
127598;163618
127616;163654
127625;163644
127653;163650
127657;163670
127668;163674
127658;163698
127652;163725
127637;163739
127685;163715
127699;163755
127722;163807
127718;163876
127736;163931
127742;163993
127743;164031
127794;164059
127809;164075
127805;164152
127811;164172
127828;164200
127816;164216
127849;164226
127868;164251
127846;164299
127838;164330
127846;164378
127855;164397
127875;164404
127905;164420
127916;164430
127911;164500
127906;164551
127899;164561
127942;164565
127963;164581
127986;164624
127971;164643
127982;164682
127972;164726
127972;164750
128018;164735
128035;164774
128032;164848
128032;164867
128017;164878
128019;164898
128062;164931
128073;164938
128057;164953
128059;165009
128062;165000
128048;164939
127971;164768
127876;164485
127804;164167
127722;163951
127628;163812
127619;163694
127629;163625
127617;163572
127621;163546
127601;163502
127570;163498
127548;163479
127536;163452
127574;163401
127567;163383
127567;163437
127562;163445
127555;163462
127551;163470
127582;163472
127613;163462
127620;163494
127602;163559
127629;163598
127634;163649
127664;163690
127675;163732
127683;163721
127649;163749
127645;163784
127642;163755
127663;163741
127676;163720
127673;163731
127668;163767
127664;163771
127647;163799
127668;163806
127704;163775
127701;163786
127676;163844
127712;163911
127724;163950
127740;163994
127771;164041
127803;164066
127817;164142
127789;164224
127791;164285
127860;164316
127884;164356
127874;164402
127909;164446
127904;164470
127897;164537
127888;164543
127930;164504
127929;164548
127941;164586
127954;164620
127933;164659
127948;164669
127960;164700
127988;164689
127983;164703
127977;164749
127992;164784
127985;164802
127976;164802
128033;164849
128065;164863
128061;164919
128041;164984
128079;165052
128108;165087
128120;165115
128136;165157
128140;165185
128151;165238
128132;165271
128139;165289
128158;165238
128161;165194
128101;165044
127980;164793
127851;164420
127746;164131
127671;163910
127673;163760
127640;163657
127621;163639
127601;163599
127595;163569
127567;163529
127589;163519
127579;163465
127577;163475
127547;163485
127558;163498
127564;163478
127579;163483
127572;163473
127599;163490
127552;163492
127553;163540
127536;163522
127606;163496
127607;163560
127620;163631
127635;163697
127651;163752
127657;163766
127683;163824
127696;163815
127690;163804
127713;163840
127693;163850
127701;163839
127692;163847
127678;163829
127745;163861
127717;163880
127707;163958
127720;163959
127738;164003
127741;164000
127784;164085
127784;164090
127794;164162
127778;164193
127792;164258
127829;164232
127845;164288
127854;164314
127853;164383
127859;164403
127842;164472
127874;164473
127909;164527
127922;164562
127954;164678
127956;164687
127983;164778
127973;164732
128006;164799
128023;164766
128011;164811
128004;164856
128021;164940
128037;164972
128088;165012
128088;165024
128121;165073
128086;165078
128105;165152
128093;165122
128129;165165
128130;165194
128167;165284
128192;165281
128195;165362
128166;165364
128179;165417
128183;165344
128192;165340
128149;165257
128098;165105
127976;164811
127836;164477
127777;164187
127759;163988
127672;163831
127652;163825
127631;163723
127631;163698
127608;163639
127622;163636
127626;163593
127606;163622
127572;163602
127569;163631
127583;163594
127610;163604
127616;163603
127643;163631
127613;163640
127615;163700
127610;163686
127654;163694
127653;163723
127693;163856
127689;163846
127720;163976
127709;164003
127755;164055
127756;164026
127780;164047
127776;164085
127777;164107
127742;164052
127765;164085
127763;164055
127828;164111
127802;164131
127796;164250
127792;164254
127843;164298
127841;164281
127874;164350
127891;164355
127906;164447
127896;164506
127897;164599
127962;164577
127988;164679
127996;164733
128009;164803
128008;164824
128009;164868
128016;164880
128080;164906
128072;164963
128113;165061
128115;165117
128139;165165
128121;165192
128158;165215
128185;165198
128172;165220
128139;165263
128177;165324
128183;165365
128187;165348
128216;165383
128239;165358
128211;165395
128193;165443
128184;165444
128249;165453
128248;165488
128269;165560
128256;165539
128251;165569
128231;165617
128243;165607
128258;165549
128275;165555
128229;165507
128179;165351
128076;165114
127983;164819
127883;164510
127859;164268
127790;164132
127751;164080
127731;164023
127738;163987
127705;163927
127719;163957
127733;163924
127746;163939
127703;163986
127712;164018
127758;164023
127768;164024
127756;163995
127767;163991
127753;164030
127744;164074
127745;164101
127799;164122
127815;164166
127827;164257
127837;164306
127855;164358
127864;164423
127933;164470
127932;164495
127918;164490
127915;164529
127917;164546
127899;164548
127915;164528
127937;164568
127991;164605
127982;164651
127980;164746
128032;164798
128031;164827
128034;164832
128049;164853
128046;164860
128046;164917
128027;164947
128013;164949
128073;164964
128098;164995
128095;165041
128110;165043
128089;165070
128079;165122
128080;165108
128107;165081
128113;165121
128127;165149
128113;165169
128128;165176
128113;165229
128132;165218
128156;165224
128167;165258
128172;165273
128151;165293
128145;165268
128127;165285
128149;165284
128176;165262
128158;165264
128148;165314
128152;165342
128153;165371
128175;165411
128229;165456
128218;165405
128179;165356
128062;165197
127982;164930
127898;164559
127822;164311
127753;164138
127727;164006
127688;163948
127664;163947
127648;163898
127694;163894
127712;163911
127714;163902
127719;163919
127696;163918
127648;163891
127654;163875
127687;163839
127700;163830
127697;163895
127696;163928
127708;163970
127720;163997
127746;164055
127787;164082
127768;164124
127761;164156
127778;164175
127783;164207
127799;164193
127801;164205
127796;164175
127777;164183
127745;164215
127735;164170
127758;164160
127769;164155
127775;164163
127773;164190
127776;164199
127766;164266
127801;164294
127828;164302
127849;164338
127867;164427
127839;164450
127846;164445
127822;164465
127861;164482
127894;164472
127880;164509
127897;164577
127913;164656
127948;164721
127944;164729
127953;164731
127982;164726
127950;164748
127911;164740
127901;164739
127927;164722
127936;164728
127932;164742
127956;164774
127953;164807
127910;164831
127938;164830
127967;164843
127994;164836
128015;164923
127998;164975
128015;165004
128012;165049
128049;165047
128062;165024
128027;164994
127996;164983
127959;164824
127857;164557
127765;164295
127742;164140
127696;163967
127654;163867
127602;163827
127612;163770
127624;163735
127615;163684
127615;163677
127613;163640
127580;163638
127565;163648
127559;163626
127589;163581
127591;163649
127610;163652
127606;163669
127589;163676
127569;163670
127617;163678
127617;163679
127638;163704
127638;163782
127656;163840
127678;163873
127686;163937
127736;164008
127777;164013
127758;164086
127728;164098
127721;164094
127742;164080
127728;164036
127743;163996
127743;163993
127701;164005
127703;164043
127693;164066
127752;164071
127784;164121
127769;164168
127770;164195
127767;164195
127735;164193
127724;164168
127772;164156
127754;164173
127759;164222
127770;164277
127784;164343
127784;164353
127806;164374
127831;164397
127827;164447
127828;164511
127859;164566
127886;164657
127903;164654
127923;164690
127922;164696
127884;164711
127869;164735
127862;164737
127913;164752
127923;164814
127975;164894
127993;164977
128000;165026
127977;165094
128002;165094
128018;165070
127992;165010
127987;165006
127946;164923
127878;164802
127802;164565
127744;164332
127733;164152
127704;164062
127663;163976
127595;163840
127564;163744
127558;163675
127560;163643
127560;163640
127550;163661
127512;163686
127516;163662
127548;163626
127533;163608
127554;163642
127555;163665
127557;163711
127562;163726
127605;163768
127657;163801
127656;163897
127668;163970
127685;164022
127699;164057
127693;164093
127712;164097
127752;164148
127734;164170
127710;164215
127713;164202
127741;164198
127745;164195
127744;164239
127774;164215
127746;164243
127707;164250
127739;164277
127763;164244
127798;164292
127793;164387
127849;164462
127858;164511
127849;164592
127897;164617
127958;164687
127953;164756
127953;164873
127968;164897
127949;164863
127929;164835
127966;164882
127937;164840
127926;164853
127889;164857
127898;164866
127928;164827
127940;164872
127945;164842
127962;164915
127930;164912
127944;164995
127934;164944
127979;164972
127967;164993
127996;165074
128003;165096
128016;165147
127986;165149
128029;165196
128053;165148
128027;165175
127975;165139
127957;165069
127885;164892
127820;164616
127696;164280
127642;164078
127588;163921
127522;163838
127472;163718
127524;163659
127498;163587
127513;163590
127471;163575
127468;163583
127444;163573
127488;163586
127485;163519
127520;163577
127518;163584
127519;163627
127493;163595
127502;163614
127498;163587
127531;163623
127514;163606
127521;163685
127507;163719
127571;163776
127556;163769
127576;163852
127599;163830
127571;163857
127536;163835
127539;163840
127563;163774
127569;163778
127556;163779
127539;163836
127526;163817
127541;163852
127560;163858
127621;163908
127610;163956
127614;164084
127640;164145
127699;164218
127694;164246
127733;164283
127720;164267
127721;164325
127687;164338
127699;164351
127730;164340
127747;164391
127752;164422
127773;164476
127776;164505
127765;164575
127752;164555
127811;164540
127791;164556
127804;164589
127789;164609
127805;164639
127784;164647
127822;164686
127872;164702
127867;164766
127845;164827
127874;164854
127903;164883
127922;164895
127934;164908
127919;164906
127873;164844
127784;164695
127677;164412
127624;164103
127539;163887
127508;163768
127463;163652
127430;163591
127398;163525
127427;163470
127424;163444
127416;163428
127383;163441
127417;163462
127403;163460
127412;163434
127401;163441
127442;163424
127412;163438
127405;163486
127397;163507
127448;163502
127470;163572
127496;163640
127490;163683
127500;163738
127483;163776
127530;163781
127544;163758
127519;163790
127541;163812
127535;163844
127530;163849
127517;163848
127518;163803
127555;163789
127515;163797
127495;163835
127527;163866
127572;163916
127583;163945
127620;164046
127640;164089
127651;164127
127616;164169
127632;164161
127648;164158
127676;164205
127679;164247
127687;164299
127710;164360
127711;164406
127737;164418
127773;164449
127766;164464
127769;164552
127781;164558
127782;164611
127791;164592
127786;164584
127804;164585
127763;164579
127739;164592
127756;164623
127803;164636
127819;164689
127857;164766
127879;164861
127884;164935
127882;164987
127908;164994
127925;164978
127913;164956
127890;164948
127851;164867
127793;164716
127673;164396
127597;164100
127563;163898
127491;163765
127432;163660
127424;163596
127410;163495
127392;163436
127394;163395
127370;163357
127338;163328
127327;163341
127326;163310
127355;163289
127360;163276
127377;163352
127361;163352
127371;163354
127333;163357
127380;163350
127406;163352
127385;163404
127377;163426
127439;163504
127418;163551
127462;163599
127483;163623
127497;163629
127462;163647
127455;163673
127452;163661
127481;163621
127454;163606
127456;163597
127465;163613
127438;163612
127438;163626
127450;163653
127478;163664
127486;163703
127486;163766
127507;163822
127528;163848
127525;163893
127566;163911
127599;163950
127588;164018
127546;164069
127577;164077
127621;164120
127636;164130
127644;164158
127645;164198
127668;164258
127644;164303
127656;164325
127706;164348
127716;164380
127730;164467
127734;164480
127737;164496
127728;164545
127748;164527
127781;164546
127786;164578
127775;164652
127809;164739
127845;164782
127850;164812
127883;164869
127900;164894
127915;164958
127871;165026
127881;164988
127933;164972
127911;164966
127882;164865
127777;164648
127645;164312
127530;164006
127465;163817
127447;163588
127413;163490
127390;163451
127365;163414
127368;163385
127334;163314
127339;163284
127360;163245
127323;163255
127275;163245
127288;163209
127303;163202
127287;163168
127310;163182
127302;163161
127288;163186
127268;163220
127289;163215
127303;163228
127321;163229
127337;163297
127347;163348
127340;163375
127351;163436
127392;163437
127408;163447
127402;163461
127394;163532
127403;163509
127395;163485
127381;163481
127421;163493
127442;163457
127434;163522
127397;163569
127403;163633
127467;163660
127478;163674
127486;163731
127506;163771
127515;163831
127517;163912
127548;163954
127596;163995
127624;164071
127656;164176
127666;164263
127674;164298
127678;164339
127699;164364
127752;164376
127715;164392
127716;164438
127722;164506
127740;164536
127729;164549
127766;164535
127780;164552
127771;164582
127750;164641
127760;164652
127799;164666
127801;164695
127831;164725
127801;164763
127838;164801
127802;164803
127817;164811
127853;164802
127850;164837
127874;164898
127895;164963
127892;165021
127892;165038
127909;165028
127909;165000
127835;164837
127732;164628
127599;164245
127517;163957
127476;163752
127435;163628
127408;163495
127365;163472
127334;163411
127338;163365
127320;163266
127325;163226
127312;163224
127300;163247
127299;163241
127293;163260
127305;163248
127344;163217
127328;163226
127282;163257
127305;163252
127333;163324
127334;163306
127355;163361
127390;163388
127395;163483
127365;163516
127385;163573
127416;163557
127443;163596
127442;163565
127452;163614
127446;163628
127432;163671
127432;163659
127500;163691
127453;163667
127465;163721
127466;163726
127467;163771
127481;163770
127514;163861
127547;163879
127565;164003
127538;164047
127563;164118
127608;164160
127657;164215
127652;164218
127705;164304
127672;164352
127694;164468
127716;164492
127750;164565
127772;164562
127791;164675
127801;164670
127802;164723
127807;164723
127841;164766
127848;164741
127854;164795
127858;164858
127874;164943
127860;164926
127883;164948
127871;164899
127917;164913
127868;164930
127871;165002
127896;165006
127941;165094
127929;165107
127987;165187
127976;165176
127981;165261
127949;165295
127968;165300
127997;165258
128010;165291
127997;165281
127989;165287
127932;165156
127831;164947
127731;164562
127649;164209
127545;163950
127492;163852
127442;163703
127449;163690
127423;163603
127446;163605
